# Pulseq sequence file
# Created by MATLAB mr toolbox

[VERSION]
major 1
minor 4
revision 0

[DEFINITIONS]
AdcRasterTime 1e-07 
Averages 1 
BaseResolution 256 
BlockDurationRaster 1e-05 
Dephasing 2 
DiscardPost 20 
DiscardPre 20 
FOV 0.3 0.3 0.005 
Frames 317 
GradientRasterTime 1e-05 
Interleaves 7 
MaxGrad 24 
MaxSlew 180.18 
Name FISP 3D spiral 
RadiofrequencyRasterTime 1e-06 
RasterTime 1e-06 
RealDwellTime 2.5e-06 
Repetitions 1 
Resolution 0.001171875 
TE 0.00135 
TR 0.02296 0.02296 0.02296 0.02296 0.02296 0.02296 0.02296 0.02296 0.02296 0.02296 0.02296 0.02296 0.02296 0.02296 0.02296 0.02296 0.02296 0.02296 0.02296 0.02296 0.02296 0.02296 0.02296 0.02296 0.02296 0.02296 0.02296 0.02296 0.02296 0.02296 0.02296 0.02296 0.02296 0.02296 0.02296 0.02296 0.02296 0.02296 0.02296 0.02296 0.02296 0.02296 0.02296 0.02296 0.02296 0.02296 0.02296 0.02296 0.02296 0.02296 0.02296 0.02296 0.02296 0.02296 0.02296 0.02296 0.02296 0.02296 0.02296 0.02296 0.02296 0.02296 0.02296 0.02296 0.02296 0.02296 0.02296 0.02296 0.02296 0.02296 0.02296 0.02296 0.02296 0.02296 0.02296 0.02296 0.02296 0.02296 0.02296 0.02296 0.02296 0.02296 0.02296 0.02296 0.02296 0.02296 0.02296 0.02296 0.02296 0.02296 0.02296 0.02296 0.02296 0.02296 0.02296 0.02296 0.02296 0.02296 0.02296 0.02296 0.02296 0.02296 0.02296 0.02296 0.02296 0.02296 0.02296 0.02296 0.02296 0.02296 0.02296 0.02296 0.02296 0.02296 0.02296 0.02296 0.02296 0.02296 0.02296 0.02296 0.02296 0.02296 0.02296 0.02296 0.02296 0.02296 0.02296 0.02296 0.02296 0.02296 0.02296 0.02296 0.02296 0.02296 0.02296 0.02296 0.02296 0.02296 0.02296 0.02296 0.02296 0.02296 0.02296 0.02296 0.02296 0.02296 0.02296 0.02296 0.02296 0.02296 0.02296 0.02296 0.02296 0.02296 0.02296 0.02296 0.02296 0.02296 0.02296 0.02296 0.02296 0.02296 0.02296 0.02296 0.02296 0.02296 0.02296 0.02296 0.02296 0.02296 0.02296 0.02296 0.02296 0.02296 0.02296 0.02296 0.02296 0.02296 0.02296 0.02296 0.02296 0.02296 0.02296 0.02296 0.02296 0.02296 0.02296 0.02296 0.02296 0.02296 0.02296 0.02296 0.02296 0.02296 0.02296 0.02296 0.02296 0.02296 0.02296 0.02296 0.02296 0.02296 0.02296 0.02296 0.02296 0.02296 0.02296 0.02296 0.02296 0.02296 0.02296 0.02296 0.02296 0.02296 0.02296 0.02296 0.02296 0.02296 0.02296 0.02296 0.02296 0.02296 0.02296 0.02296 0.02296 0.02296 0.02296 0.02296 0.02296 0.02296 0.02296 0.02296 0.02296 0.02296 0.02296 0.02296 0.02296 0.02296 0.02296 0.02296 0.02296 0.02296 0.02296 0.02296 0.02296 0.02296 0.02296 0.02296 0.02296 0.02296 0.02296 0.02296 0.02296 0.02296 0.02296 0.02296 0.02296 0.02296 0.02296 0.02296 0.02296 0.02296 0.02296 0.02296 0.02296 0.02296 0.02296 0.02296 0.02296 0.02296 0.02296 0.02296 0.02296 0.02296 0.02296 0.02296 0.02296 0.02296 0.02296 0.02296 0.02296 0.02296 0.02296 0.02296 0.02296 0.02296 0.02296 0.02296 0.02296 0.02296 0.02296 0.02296 0.02296 0.02296 0.02296 0.02296 0.02296 0.02296 0.02296 0.02296 0.02296 0.02296 0.02296 0.02296 0.02296 0.02296 0.02296 0.02296 0.02296 0.02296 0.02296 0.02296 0.02296 0.02296 0.02296 0.02296 0.02296 
TotalDuration 448.83552 
gtype 0 
sptype 0 
us_0 0.5 
us_1 1 
us_r 2 
ustype 0 

# Format of blocks:
# NUM DUR RF  GX  GY  GZ  ADC  EXT
[BLOCKS]
    1 2012   1   0   0   1  0  0
    2 2060   0   0   0   2  0  0
    3 212   2   0   0   3  0  0
    4  34   0   0   0   4  0  0
    5 1960   0   5   6   0  1  0
    6 100   0   0   0   7  0  0
    7 212   3   0   0   3  0  0
    8  34   0   0   0   4  0  0
    9 1960   0   8   9   0  2  0
   10 100   0   0   0   7  0  0
   11 212   4   0   0   3  0  0
   12  34   0   0   0   4  0  0
   13 1960   0  10  11   0  1  0
   14 100   0   0   0   7  0  0
   15 212   5   0   0   3  0  0
   16  34   0   0   0   4  0  0
   17 1960   0  12  13   0  2  0
   18 100   0   0   0   7  0  0
   19 212   6   0   0   3  0  0
   20  34   0   0   0   4  0  0
   21 1960   0  14  15   0  1  0
   22 100   0   0   0   7  0  0
   23 212   7   0   0   3  0  0
   24  34   0   0   0   4  0  0
   25 1960   0  16  17   0  2  0
   26 100   0   0   0   7  0  0
   27 212   8   0   0   3  0  0
   28  34   0   0   0   4  0  0
   29 1960   0  18  19   0  1  0
   30 100   0   0   0   7  0  0
   31 212   9   0   0   3  0  0
   32  34   0   0   0   4  0  0
   33 1960   0   5  20   0  2  0
   34 100   0   0   0   7  0  0
   35 212  10   0   0   3  0  0
   36  34   0   0   0   4  0  0
   37 1960   0   8   9   0  1  0
   38 100   0   0   0   7  0  0
   39 212  11   0   0   3  0  0
   40  34   0   0   0   4  0  0
   41 1960   0  10  11   0  2  0
   42 100   0   0   0   7  0  0
   43 212  12   0   0   3  0  0
   44  34   0   0   0   4  0  0
   45 1960   0  12  13   0  1  0
   46 100   0   0   0   7  0  0
   47 212  13   0   0   3  0  0
   48  34   0   0   0   4  0  0
   49 1960   0  14  15   0  2  0
   50 100   0   0   0   7  0  0
   51 212  14   0   0   3  0  0
   52  34   0   0   0   4  0  0
   53 1960   0  16  17   0  1  0
   54 100   0   0   0   7  0  0
   55 212  15   0   0   3  0  0
   56  34   0   0   0   4  0  0
   57 1960   0  18  19   0  2  0
   58 100   0   0   0   7  0  0
   59 212  16   0   0   3  0  0
   60  34   0   0   0   4  0  0
   61 1960   0   5  21   0  1  0
   62 100   0   0   0   7  0  0
   63 212  17   0   0   3  0  0
   64  34   0   0   0   4  0  0
   65 1960   0   8   9   0  2  0
   66 100   0   0   0   7  0  0
   67 212  18   0   0   3  0  0
   68  34   0   0   0   4  0  0
   69 1960   0  10  11   0  1  0
   70 100   0   0   0   7  0  0
   71 212  19   0   0   3  0  0
   72  34   0   0   0   4  0  0
   73 1960   0  12  13   0  2  0
   74 100   0   0   0   7  0  0
   75 212  20   0   0   3  0  0
   76  34   0   0   0   4  0  0
   77 1960   0  14  15   0  1  0
   78 100   0   0   0   7  0  0
   79 212  21   0   0   3  0  0
   80  34   0   0   0   4  0  0
   81 1960   0  16  17   0  2  0
   82 100   0   0   0   7  0  0
   83 212  22   0   0   3  0  0
   84  34   0   0   0   4  0  0
   85 1960   0  18  19   0  1  0
   86 100   0   0   0   7  0  0
   87 212  23   0   0   3  0  0
   88  34   0   0   0   4  0  0
   89 1960   0   5  22   0  2  0
   90 100   0   0   0   7  0  0
   91 212  24   0   0   3  0  0
   92  34   0   0   0   4  0  0
   93 1960   0   8   9   0  1  0
   94 100   0   0   0   7  0  0
   95 212  25   0   0   3  0  0
   96  34   0   0   0   4  0  0
   97 1960   0  10  11   0  2  0
   98 100   0   0   0   7  0  0
   99 212  26   0   0   3  0  0
  100  34   0   0   0   4  0  0
  101 1960   0  12  13   0  1  0
  102 100   0   0   0   7  0  0
  103 212  27   0   0   3  0  0
  104  34   0   0   0   4  0  0
  105 1960   0  14  15   0  2  0
  106 100   0   0   0   7  0  0
  107 212  28   0   0   3  0  0
  108  34   0   0   0   4  0  0
  109 1960   0  16  17   0  1  0
  110 100   0   0   0   7  0  0
  111 212  29   0   0   3  0  0
  112  34   0   0   0   4  0  0
  113 1960   0  18  19   0  2  0
  114 100   0   0   0   7  0  0
  115 212  30   0   0   3  0  0
  116  34   0   0   0   4  0  0
  117 1960   0   5  23   0  1  0
  118 100   0   0   0   7  0  0
  119 212  31   0   0   3  0  0
  120  34   0   0   0   4  0  0
  121 1960   0   8   9   0  2  0
  122 100   0   0   0   7  0  0
  123 212  32   0   0   3  0  0
  124  34   0   0   0   4  0  0
  125 1960   0  10  11   0  1  0
  126 100   0   0   0   7  0  0
  127 212  33   0   0   3  0  0
  128  34   0   0   0   4  0  0
  129 1960   0  12  13   0  2  0
  130 100   0   0   0   7  0  0
  131 212  34   0   0   3  0  0
  132  34   0   0   0   4  0  0
  133 1960   0  14  15   0  1  0
  134 100   0   0   0   7  0  0
  135 212  35   0   0   3  0  0
  136  34   0   0   0   4  0  0
  137 1960   0  16  17   0  2  0
  138 100   0   0   0   7  0  0
  139 212  36   0   0   3  0  0
  140  34   0   0   0   4  0  0
  141 1960   0  18  19   0  1  0
  142 100   0   0   0   7  0  0
  143 212  37   0   0   3  0  0
  144  34   0   0   0   4  0  0
  145 1960   0   5  24   0  2  0
  146 100   0   0   0   7  0  0
  147 212  38   0   0   3  0  0
  148  34   0   0   0   4  0  0
  149 1960   0   8   9   0  1  0
  150 100   0   0   0   7  0  0
  151 212  39   0   0   3  0  0
  152  34   0   0   0   4  0  0
  153 1960   0  10  11   0  2  0
  154 100   0   0   0   7  0  0
  155 212  40   0   0   3  0  0
  156  34   0   0   0   4  0  0
  157 1960   0  12  13   0  1  0
  158 100   0   0   0   7  0  0
  159 212  41   0   0   3  0  0
  160  34   0   0   0   4  0  0
  161 1960   0  14  15   0  2  0
  162 100   0   0   0   7  0  0
  163 212  42   0   0   3  0  0
  164  34   0   0   0   4  0  0
  165 1960   0  16  17   0  1  0
  166 100   0   0   0   7  0  0
  167 212  43   0   0   3  0  0
  168  34   0   0   0   4  0  0
  169 1960   0  18  19   0  2  0
  170 100   0   0   0   7  0  0
  171 212  44   0   0   3  0  0
  172  34   0   0   0   4  0  0
  173 1960   0   5  25   0  1  0
  174 100   0   0   0   7  0  0
  175 212  45   0   0   3  0  0
  176  34   0   0   0   4  0  0
  177 1960   0   8   9   0  2  0
  178 100   0   0   0   7  0  0
  179 212  46   0   0   3  0  0
  180  34   0   0   0   4  0  0
  181 1960   0  10  11   0  1  0
  182 100   0   0   0   7  0  0
  183 212  47   0   0   3  0  0
  184  34   0   0   0   4  0  0
  185 1960   0  12  13   0  2  0
  186 100   0   0   0   7  0  0
  187 212  48   0   0   3  0  0
  188  34   0   0   0   4  0  0
  189 1960   0  14  15   0  1  0
  190 100   0   0   0   7  0  0
  191 212  49   0   0   3  0  0
  192  34   0   0   0   4  0  0
  193 1960   0  16  17   0  2  0
  194 100   0   0   0   7  0  0
  195 212  50   0   0   3  0  0
  196  34   0   0   0   4  0  0
  197 1960   0  18  19   0  1  0
  198 100   0   0   0   7  0  0
  199 212  51   0   0   3  0  0
  200  34   0   0   0   4  0  0
  201 1960   0   5  26   0  2  0
  202 100   0   0   0   7  0  0
  203 212  52   0   0   3  0  0
  204  34   0   0   0   4  0  0
  205 1960   0   8   9   0  1  0
  206 100   0   0   0   7  0  0
  207 212  53   0   0   3  0  0
  208  34   0   0   0   4  0  0
  209 1960   0  10  11   0  2  0
  210 100   0   0   0   7  0  0
  211 212  54   0   0   3  0  0
  212  34   0   0   0   4  0  0
[RF]
1       638.64 1 2 0 100 0 0
2      73.1556 3 4 0 100 0 3.14159
3      90.3819 3 4 0 100 0 0
4      107.608 3 4 0 100 0 3.14159
5      124.611 3 4 0 100 0 0
6      141.389 3 4 0 100 0 3.14159
7      157.945 3 4 0 100 0 0
8      174.276 3 4 0 100 0 3.14159
9      190.272 3 4 0 100 0 0
10      205.932 3 4 0 100 0 3.14159
11      221.257 3 4 0 100 0 0
12      236.022 3 4 0 100 0 3.14159
13       250.34 3 4 0 100 0 0
14       264.21 3 4 0 100 0 3.14159
15       277.41 3 4 0 100 0 0
16      290.162 3 4 0 100 0 3.14159
17      302.242 3 4 0 100 0 0
18      313.652 3 4 0 100 0 3.14159
19       324.39 3 4 0 100 0 0
20      334.346 3 4 0 100 0 3.14159
21       343.63 3 4 0 100 0 0
22      352.131 3 4 0 100 0 3.14159
23       359.85 3 4 0 100 0 0
24      366.785 3 4 0 100 0 3.14159
25      372.825 3 4 0 100 0 0
26      378.083 3 4 0 100 0 3.14159
27      382.557 3 4 0 100 0 0
28      386.025 3 4 0 100 0 3.14159
29      388.709 3 4 0 100 0 0
30      390.499 3 4 0 100 0 3.14159
31      391.394 3 4 0 100 0 0
32      391.394 3 4 0 100 0 3.14159
33      390.499 3 4 0 100 0 0
34      388.709 3 4 0 100 0 3.14159
35      386.025 3 4 0 100 0 0
36      382.557 3 4 0 100 0 3.14159
37      378.083 3 4 0 100 0 0
38      372.825 3 4 0 100 0 3.14159
39      366.785 3 4 0 100 0 0
40       359.85 3 4 0 100 0 3.14159
41      352.131 3 4 0 100 0 0
42       343.63 3 4 0 100 0 3.14159
43      334.346 3 4 0 100 0 0
44       324.39 3 4 0 100 0 3.14159
45      313.652 3 4 0 100 0 0
46      302.242 3 4 0 100 0 3.14159
47      290.162 3 4 0 100 0 0
48       277.41 3 4 0 100 0 3.14159
49       264.21 3 4 0 100 0 0
50       250.34 3 4 0 100 0 3.14159
51      236.022 3 4 0 100 0 0
52      221.257 3 4 0 100 0 3.14159
53      205.932 3 4 0 100 0 0
54      190.272 3 4 0 100 0 3.14159
55      174.276 3 4 0 100 0 0
56      157.945 3 4 0 100 0 3.14159
57      141.389 3 4 0 100 0 0
58      124.611 3 4 0 100 0 3.14159
59      107.608 3 4 0 100 0 0
60      90.3819 3 4 0 100 0 3.14159
61      73.1556 3 4 0 100 0 0
62      55.9294 3 4 0 100 0 3.14159
63     0.838941 3 4 0 100 0 0
64     0.838941 3 4 0 100 0 3.14159
65      77.8537 3 4 0 100 0 3.14159
66      99.6662 3 4 0 100 0 0
67      121.367 3 4 0 100 0 3.14159
68      142.844 3 4 0 100 0 0
69      164.209 3 4 0 100 0 3.14159
70      185.238 3 4 0 100 0 0
71       205.82 3 4 0 100 0 3.14159
72      226.178 3 4 0 100 0 0
73      245.977 3 4 0 100 0 3.14159
74      265.329 3 4 0 100 0 0
75      284.009 3 4 0 100 0 3.14159
76      319.692 3 4 0 100 0 3.14159
77      336.583 3 4 0 100 0 0
78      352.579 3 4 0 100 0 3.14159
79      367.904 3 4 0 100 0 0
80      382.333 3 4 0 100 0 3.14159
81      395.868 3 4 0 100 0 0
82       408.62 3 4 0 100 0 3.14159
83      420.365 3 4 0 100 0 0
84      431.104 3 4 0 100 0 3.14159
85      440.947 3 4 0 100 0 0
86      449.672 3 4 0 100 0 3.14159
87      457.391 3 4 0 100 0 0
88      464.102 3 4 0 100 0 3.14159
89      469.583 3 4 0 100 0 0
90      474.057 3 4 0 100 0 3.14159
91      477.525 3 4 0 100 0 0
92      479.762 3 4 0 100 0 3.14159
93      480.881 3 4 0 100 0 0
94      480.881 3 4 0 100 0 3.14159
95      479.762 3 4 0 100 0 0
96      477.525 3 4 0 100 0 3.14159
97      474.057 3 4 0 100 0 0
98      469.583 3 4 0 100 0 3.14159
99      464.102 3 4 0 100 0 0
100      457.391 3 4 0 100 0 3.14159
101      449.672 3 4 0 100 0 0
102      440.947 3 4 0 100 0 3.14159
103      431.104 3 4 0 100 0 0
104      420.365 3 4 0 100 0 3.14159
105       408.62 3 4 0 100 0 0
106      395.868 3 4 0 100 0 3.14159
107      382.333 3 4 0 100 0 0
108      367.904 3 4 0 100 0 3.14159
109      352.579 3 4 0 100 0 0
110      336.583 3 4 0 100 0 3.14159
111      319.692 3 4 0 100 0 0
112      284.009 3 4 0 100 0 0
113      265.329 3 4 0 100 0 3.14159
114      245.977 3 4 0 100 0 0
115      226.178 3 4 0 100 0 3.14159
116       205.82 3 4 0 100 0 0
117      185.238 3 4 0 100 0 3.14159
118      164.209 3 4 0 100 0 0
119      142.844 3 4 0 100 0 3.14159
120      121.367 3 4 0 100 0 0
121      99.6662 3 4 0 100 0 3.14159
122      77.8537 3 4 0 100 0 0
123      93.4021 3 4 0 100 0 3.14159
124      130.651 3 4 0 100 0 0
125      167.788 3 4 0 100 0 3.14159
126      204.702 3 4 0 100 0 0
127      241.056 3 4 0 100 0 3.14159
128      277.074 3 4 0 100 0 0
129      312.422 3 4 0 100 0 3.14159
130      347.098 3 4 0 100 0 0
131      380.991 3 4 0 100 0 3.14159
132      414.101 3 4 0 100 0 0
133      446.205 3 4 0 100 0 3.14159
134       477.19 3 4 0 100 0 0
135      507.168 3 4 0 100 0 3.14159
136      535.915 3 4 0 100 0 0
137      563.433 3 4 0 100 0 3.14159
138      589.496 3 4 0 100 0 0
139      614.217 3 4 0 100 0 3.14159
140      637.483 3 4 0 100 0 0
141      659.184 3 4 0 100 0 3.14159
142      679.318 3 4 0 100 0 0
143      697.663 3 4 0 100 0 3.14159
144      714.442 3 4 0 100 0 0
145      729.431 3 4 0 100 0 3.14159
146       742.63 3 4 0 100 0 0
147       754.04 3 4 0 100 0 3.14159
148      763.548 3 4 0 100 0 0
149      771.266 3 4 0 100 0 3.14159
150      776.971 3 4 0 100 0 0
151      780.886 3 4 0 100 0 3.14159
152      782.788 3 4 0 100 0 0
153      782.788 3 4 0 100 0 3.14159
154      780.886 3 4 0 100 0 0
155      776.971 3 4 0 100 0 3.14159
156      771.266 3 4 0 100 0 0
157      763.548 3 4 0 100 0 3.14159
158       754.04 3 4 0 100 0 0
159       742.63 3 4 0 100 0 3.14159
160      729.431 3 4 0 100 0 0
161      714.442 3 4 0 100 0 3.14159
162      697.663 3 4 0 100 0 0
163      679.318 3 4 0 100 0 3.14159
164      659.184 3 4 0 100 0 0
165      637.483 3 4 0 100 0 3.14159
166      614.217 3 4 0 100 0 0
167      589.496 3 4 0 100 0 3.14159
168      563.433 3 4 0 100 0 0
169      535.915 3 4 0 100 0 3.14159
170      507.168 3 4 0 100 0 0
171       477.19 3 4 0 100 0 3.14159
172      446.205 3 4 0 100 0 0
173      414.101 3 4 0 100 0 3.14159
174      380.991 3 4 0 100 0 0
175      347.098 3 4 0 100 0 3.14159
176      312.422 3 4 0 100 0 0
177      277.074 3 4 0 100 0 3.14159
178      241.056 3 4 0 100 0 0
179      204.702 3 4 0 100 0 3.14159
180      167.788 3 4 0 100 0 0
181      130.651 3 4 0 100 0 3.14159
182      93.4021 3 4 0 100 0 0
183      78.9723 3 4 0 100 0 3.14159
184      101.903 3 4 0 100 0 0
185      124.834 3 4 0 100 0 3.14159
186       147.43 3 4 0 100 0 0
187      169.913 3 4 0 100 0 3.14159
188       191.95 3 4 0 100 0 0
189      213.762 3 4 0 100 0 3.14159
190      235.127 3 4 0 100 0 0
191      255.933 3 4 0 100 0 3.14159
192      276.291 3 4 0 100 0 0
193       296.09 3 4 0 100 0 3.14159
194      315.218 3 4 0 100 0 0
195      333.563 3 4 0 100 0 3.14159
196      351.348 3 4 0 100 0 0
197      368.239 3 4 0 100 0 3.14159
198      384.347 3 4 0 100 0 0
199       399.56 3 4 0 100 0 3.14159
200      413.766 3 4 0 100 0 0
201      427.189 3 4 0 100 0 3.14159
202      439.493 3 4 0 100 0 0
203      450.903 3 4 0 100 0 3.14159
204      461.194 3 4 0 100 0 0
205      470.366 3 4 0 100 0 3.14159
206      478.532 3 4 0 100 0 0
207      485.579 3 4 0 100 0 3.14159
208      491.396 3 4 0 100 0 0
209      496.094 3 4 0 100 0 3.14159
210      499.673 3 4 0 100 0 0
211      502.022 3 4 0 100 0 3.14159
212      503.253 3 4 0 100 0 0
213      503.253 3 4 0 100 0 3.14159
214      502.022 3 4 0 100 0 0
215      499.673 3 4 0 100 0 3.14159
216      496.094 3 4 0 100 0 0
217      491.396 3 4 0 100 0 3.14159
218      485.579 3 4 0 100 0 0
219      478.532 3 4 0 100 0 3.14159
220      470.366 3 4 0 100 0 0
221      461.194 3 4 0 100 0 3.14159
222      450.903 3 4 0 100 0 0
223      439.493 3 4 0 100 0 3.14159
224      427.189 3 4 0 100 0 0
225      413.766 3 4 0 100 0 3.14159
226       399.56 3 4 0 100 0 0
227      384.347 3 4 0 100 0 3.14159
228      368.239 3 4 0 100 0 0
229      351.348 3 4 0 100 0 3.14159
230      333.563 3 4 0 100 0 0
231      315.218 3 4 0 100 0 3.14159
232       296.09 3 4 0 100 0 0
233      276.291 3 4 0 100 0 3.14159
234      255.933 3 4 0 100 0 0
235      235.127 3 4 0 100 0 3.14159
236      213.762 3 4 0 100 0 0
237       191.95 3 4 0 100 0 3.14159
238      169.913 3 4 0 100 0 0
239       147.43 3 4 0 100 0 3.14159
240      124.834 3 4 0 100 0 0
241      101.903 3 4 0 100 0 3.14159
242      78.9723 3 4 0 100 0 0
243      68.5694 3 4 0 100 0 3.14159
244      81.2095 3 4 0 100 0 0
245      93.8495 3 4 0 100 0 3.14159
246      106.266 3 4 0 100 0 0
247       118.57 3 4 0 100 0 3.14159
248      130.763 3 4 0 100 0 0
249      142.732 3 4 0 100 0 3.14159
250      154.477 3 4 0 100 0 0
251      165.998 3 4 0 100 0 3.14159
252      177.184 3 4 0 100 0 0
253      188.035 3 4 0 100 0 3.14159
254      198.549 3 4 0 100 0 0
255      208.617 3 4 0 100 0 3.14159
256      218.348 3 4 0 100 0 0
257      227.633 3 4 0 100 0 3.14159
258      236.581 3 4 0 100 0 0
259      244.859 3 4 0 100 0 3.14159
260      252.801 3 4 0 100 0 0
261      260.072 3 4 0 100 0 3.14159
262      266.895 3 4 0 100 0 0
263      273.159 3 4 0 100 0 3.14159
264      278.864 3 4 0 100 0 0
265      283.898 3 4 0 100 0 3.14159
266      288.372 3 4 0 100 0 0
267      292.175 3 4 0 100 0 3.14159
268      295.419 3 4 0 100 0 0
269      297.992 3 4 0 100 0 3.14159
270      300.005 3 4 0 100 0 0
271      301.236 3 4 0 100 0 3.14159
272      301.907 3 4 0 100 0 0
273      301.907 3 4 0 100 0 3.14159
274      301.236 3 4 0 100 0 0
275      300.005 3 4 0 100 0 3.14159
276      297.992 3 4 0 100 0 0
277      295.419 3 4 0 100 0 3.14159
278      292.175 3 4 0 100 0 0
279      288.372 3 4 0 100 0 3.14159
280      283.898 3 4 0 100 0 0
281      278.864 3 4 0 100 0 3.14159
282      273.159 3 4 0 100 0 0
283      266.895 3 4 0 100 0 3.14159
284      260.072 3 4 0 100 0 0
285      252.801 3 4 0 100 0 3.14159
286      244.859 3 4 0 100 0 0
287      236.581 3 4 0 100 0 3.14159
288      227.633 3 4 0 100 0 0
289      218.348 3 4 0 100 0 3.14159
290      208.617 3 4 0 100 0 0
291      198.549 3 4 0 100 0 3.14159
292      188.035 3 4 0 100 0 0
293      177.184 3 4 0 100 0 3.14159
294      165.998 3 4 0 100 0 0
295      154.477 3 4 0 100 0 3.14159
296      142.732 3 4 0 100 0 0
297      130.763 3 4 0 100 0 3.14159
298       118.57 3 4 0 100 0 0
299      106.266 3 4 0 100 0 3.14159
300      93.8495 3 4 0 100 0 0
301      81.2095 3 4 0 100 0 3.14159
302      68.5694 3 4 0 100 0 0

# Format of arbitrary gradients:
#   time_shape_id of 0 means default timing (stepping with grad_raster starting at 1/2 of grad_raster)
# id amplitude amp_shape_id time_shape_id delay
# ..      Hz/m       ..         ..          us
[GRADIENTS]
5  1.02182e+06 5 0 60
6 -1.02182e+06 6 0 60
8  1.02182e+06 7 0 60
9  1.02182e+06 8 0 60
10 -1.02182e+06 9 0 60
11  1.02182e+06 10 0 60
12 -1.02182e+06 11 0 60
13  1.02182e+06 12 0 60
14 -1.02182e+06 13 0 60
15 -1.02182e+06 14 0 60
16 -1.02182e+06 15 0 60
17 -1.02182e+06 16 0 60
18  1.02182e+06 17 0 60
19 -1.02182e+06 18 0 60
20 -1.02182e+06 19 0 60
21 -1.02182e+06 20 0 60
22 -1.02182e+06 21 0 60
23 -1.02182e+06 22 0 60
24 -1.02182e+06 23 0 60
25 -1.02182e+06 24 0 60
26 -1.02182e+06 25 0 60
27 -1.02182e+06 26 0 60
28 -1.02182e+06 27 0 60
29 -1.02182e+06 28 0 60
30 -1.02182e+06 29 0 60
31 -1.02182e+06 30 0 60
32  1.02182e+06 31 0 60
33 -1.02182e+06 32 0 60
34 -1.02182e+06 33 0 60
35 -1.02182e+06 34 0 60
36  1.02182e+06 35 0 60
37 -1.02182e+06 36 0 60
38 -1.02182e+06 37 0 60
39 -1.02182e+06 38 0 60
40  1.02182e+06 39 0 60
41 -1.02182e+06 40 0 60
42 -1.02182e+06 41 0 60
43 -1.02182e+06 42 0 60
44  1.02182e+06 43 0 60
45  1.02182e+06 44 0 60
46 -1.02182e+06 45 0 60
47 -1.02182e+06 46 0 60
48  1.02182e+06 47 0 60
49 -1.02182e+06 48 0 60
50 -1.02182e+06 49 0 60
51 -1.02182e+06 50 0 60
52 -1.02182e+06 51 0 60
53  1.02182e+06 52 0 60
54 -1.02182e+06 53 0 60
55 -1.02182e+06 54 0 60
56 -1.02182e+06 55 0 60
57 -1.02182e+06 56 0 60
58 -1.02182e+06 57 0 60
59 -1.02182e+06 58 0 60
60 -1.02182e+06 59 0 60
61  1.02182e+06 60 0 60
62 -1.02182e+06 61 0 60
63 -1.02182e+06 62 0 60
64 -1.02182e+06 63 0 60

# Format of trapezoid gradients:
# id amplitude rise flat fall delay
# ..      Hz/m   us   us   us    us
[TRAP]
 1      5199.06  10 20000  10  90
 2       153274 800 19200 600   0
 3      16666.7  10 2000  10  90
 4      -972917 120    0 120   0
 7  1.00677e+06 140  340 140 380
65      -938194 120    0 120   0
66  1.01933e+06 140  330 140 390
67      -903472 120    0 120   0
68  1.01046e+06 140  330 140 390
69      -868750 120    0 120   0
70   1.0016e+06 140  330 140 390
71      -834028 120    0 120   0
72  1.01431e+06 140  320 140 400
73      -799306 120    0 120   0
74  1.00525e+06 140  320 140 400
75      -764583 120    0 120   0
76  1.01833e+06 140  310 140 410
77      -729861 120    0 120   0
78  1.00907e+06 140  310 140 410
79      -695139 120    0 120   0
80       999815 140  310 140 410
81      -660417 120    0 120   0
82  1.01307e+06 140  300 140 420
83      -625694 120    0 120   0
84   1.0036e+06 140  300 140 420
85      -590972 120    0 120   0
86  1.01725e+06 140  290 140 430
87      -556250 120    0 120   0
88  1.00756e+06 140  290 140 430
89      -521528 120    0 120   0
90  1.02163e+06 140  280 140 440
91      -486806 120    0 120   0
92  1.01171e+06 140  280 140 440
93      -452083 120    0 120   0
94  1.00179e+06 140  280 140 440
95      -417361 120    0 120   0
96  1.01606e+06 140  270 140 450
97      -382639 120    0 120   0
98  1.00589e+06 140  270 140 450
99      -347917 120    0 120   0
100  1.02062e+06 140  260 140 460
101      -313194 120    0 120   0
102  1.01021e+06 140  260 140 460
103      -278472 120    0 120   0
104       999792 140  260 140 460
105      -243750 120    0 120   0
106  1.01474e+06 140  250 140 470
107      -209028 120    0 120   0
108  1.00406e+06 140  250 140 470
109      -174306 120    0 120   0
110  1.01952e+06 140  240 140 480
111      -139583 120    0 120   0
112  1.00855e+06 140  240 140 480
113      -104861 120    0 120   0
114       997588 140  240 140 480
115     -70138.9 120    0 120   0
116  1.01329e+06 140  230 140 490
117     -35416.7 120    0 120   0
118  1.00203e+06 140  230 140 490
119     -694.444 120    0 120   0
120  1.01829e+06 140  220 140 500
121      34027.8 120    0 120   0
122  1.00671e+06 140  220 140 500
123        68750 120    0 120   0
124       995139 130  230 130 510
125       103472 120    0 120   0
126  1.01167e+06 140  210 140 510
127       138194 120    0 120   0
128       999762 140  210 140 510
129       172917 120    0 120   0
130  1.01691e+06 140  200 140 520
131       207639 120    0 120   0
132  1.00466e+06 140  200 140 520
133       242361 120    0 120   0
134       992402 130  210 130 530
135       277083 120    0 120   0
136  1.00985e+06 140  190 140 530
137       311806 120    0 120   0
138       997222 130  200 130 540
139       346528 120    0 120   0
140  1.01536e+06 140  180 140 540
141       381250 120    0 120   0
142  1.00234e+06 140  180 140 540
143       415972 120    0 120   0
144  1.02124e+06 140  170 140 550
145       450694 120    0 120   0
146   1.0078e+06 140  170 140 550
147       485417 120    0 120   0
148       994355 130  180 130 560
149       520139 120    0 120   0
150  1.01361e+06 140  160 140 560
151       554861 120    0 120   0
152       999722 140  160 140 560
153       589583 120    0 120   0
154  1.01983e+06 140  150 140 570
155       624306 120    0 120   0
156  1.00546e+06 140  150 140 570
157       659028 120    0 120   0
158       991092 130  160 130 580

# Format of ADC events:
# id num dwell delay freq phase
# ..  ..    ns    us   Hz   rad
[ADC]
1 7832 2500 10 0 3.14159
2 7832 2500 10 0 0

# Sequence Shapes
[SHAPES]

shape_id 1
num_samples 20000
0.0006712
5e-07
6e-07
5e-07
5e-07
0
6e-07
5e-07
6e-07
5e-07
5e-07
0
6e-07
5e-07
6e-07
5e-07
6e-07
5e-07
5e-07
0
6e-07
5e-07
6e-07
5e-07
6e-07
5e-07
6e-07
5e-07
6e-07
5e-07
5e-07
0
6e-07
5e-07
6e-07
5e-07
6e-07
5e-07
6e-07
6e-07
0
5e-07
6e-07
5e-07
6e-07
5e-07
6e-07
5e-07
6e-07
5e-07
6e-07
6e-07
0
5e-07
6e-07
5e-07
6e-07
5e-07
6e-07
6e-07
0
5e-07
6e-07
5e-07
6e-07
6e-07
0
5e-07
6e-07
6e-07
0
5e-07
6e-07
6e-07
0
5e-07
6e-07
6e-07
0
5e-07
6e-07
6e-07
0
5e-07
6e-07
6e-07
0
5e-07
6e-07
6e-07
0
5e-07
6e-07
6e-07
1
5e-07
6e-07
6e-07
0
5e-07
6e-07
6e-07
1
5e-07
6e-07
6e-07
2
5e-07
6e-07
6e-07
2
5e-07
6e-07
6e-07
2
5e-07
6e-07
6e-07
3
5e-07
6e-07
6e-07
6
5e-07
6e-07
6e-07
11
5e-07
6e-07
6e-07
11
7e-07
6e-07
6e-07
12
7e-07
6e-07
6e-07
5
7e-07
6e-07
6e-07
3
7e-07
6e-07
6e-07
2
7e-07
6e-07
6e-07
2
7e-07
6e-07
6e-07
1
7e-07
6e-07
6e-07
1
7e-07
6e-07
6e-07
1
7e-07
6e-07
6e-07
0
7e-07
6e-07
6e-07
1
7e-07
6e-07
6e-07
0
7e-07
6e-07
6e-07
0
7e-07
6e-07
7e-07
6e-07
6e-07
0
7e-07
6e-07
6e-07
0
7e-07
6e-07
7e-07
6e-07
6e-07
0
7e-07
6e-07
7e-07
6e-07
7e-07
6e-07
6e-07
0
7e-07
6e-07
7e-07
6e-07
7e-07
6e-07
7e-07
6e-07
7e-07
6e-07
7e-07
6e-07
7e-07
6e-07
7e-07
6e-07
7e-07
6e-07
7e-07
6e-07
7e-07
7e-07
0
6e-07
7e-07
6e-07
7e-07
6e-07
7e-07
7e-07
0
6e-07
7e-07
6e-07
7e-07
7e-07
0
6e-07
7e-07
7e-07
0
6e-07
7e-07
7e-07
0
6e-07
7e-07
7e-07
0
6e-07
7e-07
7e-07
0
6e-07
7e-07
7e-07
0
6e-07
7e-07
7e-07
1
6e-07
7e-07
7e-07
1
6e-07
7e-07
7e-07
1
6e-07
7e-07
7e-07
1
6e-07
7e-07
7e-07
3
6e-07
7e-07
7e-07
3
6e-07
7e-07
7e-07
6
6e-07
7e-07
7e-07
29
8e-07
7e-07
7e-07
6
8e-07
7e-07
7e-07
3
8e-07
7e-07
7e-07
2
8e-07
7e-07
7e-07
2
8e-07
7e-07
7e-07
1
8e-07
7e-07
7e-07
1
8e-07
7e-07
7e-07
0
8e-07
7e-07
7e-07
0
8e-07
7e-07
7e-07
0
8e-07
7e-07
7e-07
0
8e-07
7e-07
7e-07
0
8e-07
7e-07
7e-07
0
8e-07
7e-07
8e-07
7e-07
7e-07
0
8e-07
7e-07
8e-07
7e-07
8e-07
7e-07
7e-07
0
8e-07
7e-07
8e-07
7e-07
8e-07
7e-07
8e-07
7e-07
8e-07
7e-07
8e-07
7e-07
8e-07
7e-07
8e-07
7e-07
8e-07
8e-07
0
7e-07
8e-07
7e-07
8e-07
7e-07
8e-07
8e-07
0
7e-07
8e-07
8e-07
0
7e-07
8e-07
7e-07
8e-07
8e-07
0
7e-07
8e-07
8e-07
0
7e-07
8e-07
8e-07
0
7e-07
8e-07
8e-07
1
7e-07
8e-07
8e-07
0
7e-07
8e-07
8e-07
1
7e-07
8e-07
8e-07
2
7e-07
8e-07
8e-07
2
7e-07
8e-07
8e-07
3
7e-07
8e-07
8e-07
7
7e-07
8e-07
8e-07
21
9e-07
8e-07
8e-07
6
9e-07
8e-07
8e-07
4
9e-07
8e-07
8e-07
2
9e-07
8e-07
8e-07
1
9e-07
8e-07
8e-07
1
9e-07
8e-07
8e-07
1
9e-07
8e-07
8e-07
0
9e-07
8e-07
8e-07
0
9e-07
8e-07
8e-07
0
9e-07
8e-07
8e-07
0
9e-07
8e-07
9e-07
8e-07
8e-07
0
9e-07
8e-07
9e-07
8e-07
8e-07
0
9e-07
8e-07
9e-07
8e-07
9e-07
8e-07
9e-07
8e-07
9e-07
8e-07
9e-07
8e-07
9e-07
8e-07
9e-07
8e-07
9e-07
8e-07
9e-07
9e-07
0
8e-07
9e-07
8e-07
9e-07
9e-07
0
8e-07
9e-07
8e-07
9e-07
9e-07
0
8e-07
9e-07
9e-07
0
8e-07
9e-07
9e-07
0
8e-07
9e-07
9e-07
0
8e-07
9e-07
9e-07
1
8e-07
9e-07
9e-07
1
8e-07
9e-07
9e-07
2
8e-07
9e-07
9e-07
2
8e-07
9e-07
9e-07
4
8e-07
9e-07
9e-07
29
1e-06
9e-07
9e-07
4
1e-06
9e-07
9e-07
2
1e-06
9e-07
9e-07
2
1e-06
9e-07
9e-07
1
1e-06
9e-07
9e-07
0
1e-06
9e-07
9e-07
1
1e-06
9e-07
9e-07
0
1e-06
9e-07
9e-07
0
1e-06
9e-07
1e-06
9e-07
9e-07
0
1e-06
9e-07
1e-06
9e-07
9e-07
0
1e-06
9e-07
1e-06
9e-07
1e-06
9e-07
1e-06
9e-07
1e-06
9e-07
1e-06
9e-07
1e-06
9e-07
1e-06
9e-07
1e-06
1e-06
0
9e-07
1e-06
9e-07
1e-06
1e-06
0
9e-07
1e-06
9e-07
1e-06
1e-06
0
9e-07
1e-06
1e-06
0
9e-07
1e-06
1e-06
0
9e-07
1e-06
1e-06
1
9e-07
1e-06
1e-06
1
9e-07
1e-06
1e-06
2
9e-07
1e-06
1e-06
2
9e-07
1e-06
1e-06
5
9e-07
1e-06
1e-06
20
1.1e-06
1e-06
1e-06
5
1.1e-06
1e-06
1e-06
3
1.1e-06
1e-06
1e-06
1
1.1e-06
1e-06
1e-06
1
1.1e-06
1e-06
1e-06
1
1.1e-06
1e-06
1e-06
0
1.1e-06
1e-06
1e-06
0
1.1e-06
1e-06
1e-06
0
1.1e-06
1e-06
1.1e-06
1e-06
1e-06
0
1.1e-06
1e-06
1.1e-06
1e-06
1.1e-06
1e-06
1.1e-06
1e-06
1e-06
0
1.1e-06
1e-06
1.1e-06
1e-06
1.1e-06
1.1e-06
0
1e-06
1.1e-06
1e-06
1.1e-06
1e-06
1.1e-06
1.1e-06
0
1e-06
1.1e-06
1e-06
1.1e-06
1.1e-06
0
1e-06
1.1e-06
1.1e-06
0
1e-06
1.1e-06
1.1e-06
0
1e-06
1.1e-06
1.1e-06
0
1e-06
1.1e-06
1.1e-06
1
1e-06
1.1e-06
1.1e-06
2
1e-06
1.1e-06
1.1e-06
2
1e-06
1.1e-06
1.1e-06
6
1e-06
1.1e-06
1.1e-06
15
1.2e-06
1.1e-06
1.1e-06
5
1.2e-06
1.1e-06
1.1e-06
3
1.2e-06
1.1e-06
1.1e-06
1
1.2e-06
1.1e-06
1.1e-06
1
1.2e-06
1.1e-06
1.1e-06
1
1.2e-06
1.1e-06
1.1e-06
0
1.2e-06
1.1e-06
1.1e-06
0
1.2e-06
1.1e-06
1.2e-06
1.1e-06
1.1e-06
0
1.2e-06
1.1e-06
1.2e-06
1.1e-06
1.2e-06
1.1e-06
1.1e-06
0
1.2e-06
1.1e-06
1.2e-06
1.1e-06
1.2e-06
1.1e-06
1.2e-06
1.2e-06
0
1.1e-06
1.2e-06
1.1e-06
1.2e-06
1.1e-06
1.2e-06
1.2e-06
0
1.1e-06
1.2e-06
1.1e-06
1.2e-06
1.2e-06
0
1.1e-06
1.2e-06
1.2e-06
0
1.1e-06
1.2e-06
