# Pulseq sequence file
# Created by MATLAB mr toolbox

[VERSION]
major 1
minor 4
revision 0

[DEFINITIONS]
AdcRasterTime 1e-07 
Averages 1 
BaseResolution 256 
BlockDurationRaster 1e-05 
Dephasing 2 
DiscardPost 20 
DiscardPre 20 
FOV 0.3 0.3 0.005 
Frames 451 
GradientRasterTime 1e-05 
Interleaves 11 
MaxGrad 24 
MaxSlew 180.18 
Name FISP 3D spiral 
RadiofrequencyRasterTime 1e-06 
RasterTime 1e-06 
RealDwellTime 2.5e-06 
Repetitions 1 
Resolution 0.001171875 
TE 0.00135 
TR 0.01614 0.01614 0.01614 0.01614 0.01614 0.01614 0.01614 0.01614 0.01614 0.01614 0.01614 0.01614 0.01614 0.01614 0.01614 0.01614 0.01614 0.01614 0.01614 0.01614 0.01614 0.01614 0.01614 0.01614 0.01614 0.01614 0.01614 0.01614 0.01614 0.01614 0.01614 0.01614 0.01614 0.01614 0.01614 0.01614 0.01614 0.01614 0.01614 0.01614 0.01614 0.01614 0.01614 0.01614 0.01614 0.01614 0.01614 0.01614 0.01614 0.01614 0.01614 0.01614 0.01614 0.01614 0.01614 0.01614 0.01614 0.01614 0.01614 0.01614 0.01614 0.01614 0.01614 0.01614 0.01614 0.01614 0.01614 0.01614 0.01614 0.01614 0.01614 0.01614 0.01614 0.01614 0.01614 0.01614 0.01614 0.01614 0.01614 0.01614 0.01614 0.01614 0.01614 0.01614 0.01614 0.01614 0.01614 0.01614 0.01614 0.01614 0.01614 0.01614 0.01614 0.01614 0.01614 0.01614 0.01614 0.01614 0.01614 0.01614 0.01614 0.01614 0.01614 0.01614 0.01614 0.01614 0.01614 0.01614 0.01614 0.01614 0.01614 0.01614 0.01614 0.01614 0.01614 0.01614 0.01614 0.01614 0.01614 0.01614 0.01614 0.01614 0.01614 0.01614 0.01614 0.01614 0.01614 0.01614 0.01614 0.01614 0.01614 0.01614 0.01614 0.01614 0.01614 0.01614 0.01614 0.01614 0.01614 0.01614 0.01614 0.01614 0.01614 0.01614 0.01614 0.01614 0.01614 0.01614 0.01614 0.01614 0.01614 0.01614 0.01614 0.01614 0.01614 0.01614 0.01614 0.01614 0.01614 0.01614 0.01614 0.01614 0.01614 0.01614 0.01614 0.01614 0.01614 0.01614 0.01614 0.01614 0.01614 0.01614 0.01614 0.01614 0.01614 0.01614 0.01614 0.01614 0.01614 0.01614 0.01614 0.01614 0.01614 0.01614 0.01614 0.01614 0.01614 0.01614 0.01614 0.01614 0.01614 0.01614 0.01614 0.01614 0.01614 0.01614 0.01614 0.01614 0.01614 0.01614 0.01614 0.01614 0.01614 0.01614 0.01614 0.01614 0.01614 0.01614 0.01614 0.01614 0.01614 0.01614 0.01614 0.01614 0.01614 0.01614 0.01614 0.01614 0.01614 0.01614 0.01614 0.01614 0.01614 0.01614 0.01614 0.01614 0.01614 0.01614 0.01614 0.01614 0.01614 0.01614 0.01614 0.01614 0.01614 0.01614 0.01614 0.01614 0.01614 0.01614 0.01614 0.01614 0.01614 0.01614 0.01614 0.01614 0.01614 0.01614 0.01614 0.01614 0.01614 0.01614 0.01614 0.01614 0.01614 0.01614 0.01614 0.01614 0.01614 0.01614 0.01614 0.01614 0.01614 0.01614 0.01614 0.01614 0.01614 0.01614 0.01614 0.01614 0.01614 0.01614 0.01614 0.01614 0.01614 0.01614 0.01614 0.01614 0.01614 0.01614 0.01614 0.01614 0.01614 0.01614 0.01614 0.01614 0.01614 0.01614 0.01614 0.01614 0.01614 0.01614 0.01614 0.01614 0.01614 0.01614 0.01614 0.01614 0.01614 0.01614 0.01614 0.01614 0.01614 0.01614 0.01614 0.01614 0.01614 0.01614 0.01614 0.01614 0.01614 0.01614 0.01614 0.01614 0.01614 0.01614 0.01614 0.01614 0.01614 0.01614 0.01614 0.01614 0.01614 0.01614 0.01614 0.01614 0.01614 0.01614 0.01614 0.01614 0.01614 0.01614 0.01614 0.01614 0.01614 0.01614 0.01614 0.01614 0.01614 0.01614 0.01614 0.01614 0.01614 0.01614 0.01614 0.01614 0.01614 0.01614 0.01614 0.01614 0.01614 0.01614 0.01614 0.01614 0.01614 0.01614 0.01614 0.01614 0.01614 0.01614 0.01614 0.01614 0.01614 0.01614 0.01614 0.01614 0.01614 0.01614 0.01614 0.01614 0.01614 0.01614 0.01614 0.01614 0.01614 0.01614 0.01614 0.01614 0.01614 0.01614 0.01614 0.01614 0.01614 0.01614 0.01614 0.01614 0.01614 0.01614 0.01614 0.01614 0.01614 0.01614 0.01614 0.01614 0.01614 0.01614 0.01614 0.01614 0.01614 0.01614 0.01614 0.01614 0.01614 0.01614 0.01614 0.01614 0.01614 0.01614 0.01614 0.01614 0.01614 0.01614 0.01614 0.01614 0.01614 0.01614 0.01614 0.01614 0.01614 0.01614 0.01614 0.01614 0.01614 0.01614 0.01614 0.01614 0.01614 0.01614 0.01614 0.01614 0.01614 0.01614 0.01614 0.01614 0.01614 0.01614 0.01614 0.01614 0.01614 0.01614 0.01614 0.01614 0.01614 0.01614 0.01614 0.01614 0.01614 0.01614 0.01614 0.01614 0.01614 
TotalDuration 449.51808 
gtype 0 
sptype 0 
us_0 0.5 
us_1 1 
us_r 2 
ustype 0 

# Format of blocks:
# NUM DUR RF  GX  GY  GZ  ADC  EXT
[BLOCKS]
    1 2012   1   0   0   1  0  0
    2 2060   0   0   0   2  0  0
    3 212   2   0   0   3  0  0
    4  34   0   0   0   4  0  0
    5 1278   0   5   6   0  1  0
    6 100   0   0   0   7  0  0
    7 212   3   0   0   3  0  0
    8  34   0   0   0   4  0  0
    9 1278   0   8   9   0  2  0
   10 100   0   0   0   7  0  0
   11 212   4   0   0   3  0  0
   12  34   0   0   0   4  0  0
   13 1278   0  10  11   0  1  0
   14 100   0   0   0   7  0  0
   15 212   5   0   0   3  0  0
   16  34   0   0   0   4  0  0
   17 1278   0  12  13   0  2  0
   18 100   0   0   0   7  0  0
   19 212   6   0   0   3  0  0
   20  34   0   0   0   4  0  0
   21 1278   0  14  15   0  1  0
   22 100   0   0   0   7  0  0
   23 212   7   0   0   3  0  0
   24  34   0   0   0   4  0  0
   25 1278   0  16  17   0  2  0
   26 100   0   0   0   7  0  0
   27 212   8   0   0   3  0  0
   28  34   0   0   0   4  0  0
   29 1278   0  18  19   0  1  0
   30 100   0   0   0   7  0  0
   31 212   9   0   0   3  0  0
   32  34   0   0   0   4  0  0
   33 1278   0  20  21   0  2  0
   34 100   0   0   0   7  0  0
   35 212  10   0   0   3  0  0
   36  34   0   0   0   4  0  0
   37 1278   0  22  23   0  1  0
   38 100   0   0   0   7  0  0
   39 212  11   0   0   3  0  0
   40  34   0   0   0   4  0  0
   41 1278   0  24  25   0  2  0
   42 100   0   0   0   7  0  0
   43 212  12   0   0   3  0  0
   44  34   0   0   0   4  0  0
   45 1278   0  26  27   0  1  0
   46 100   0   0   0   7  0  0
   47 212  13   0   0   3  0  0
   48  34   0   0   0   4  0  0
   49 1278   0   5  28   0  2  0
   50 100   0   0   0   7  0  0
   51 212  14   0   0   3  0  0
   52  34   0   0   0   4  0  0
   53 1278   0   8   9   0  1  0
   54 100   0   0   0   7  0  0
   55 212  15   0   0   3  0  0
   56  34   0   0   0   4  0  0
   57 1278   0  10  11   0  2  0
   58 100   0   0   0   7  0  0
   59 212  16   0   0   3  0  0
   60  34   0   0   0   4  0  0
   61 1278   0  12  13   0  1  0
   62 100   0   0   0   7  0  0
   63 212  17   0   0   3  0  0
   64  34   0   0   0   4  0  0
   65 1278   0  14  15   0  2  0
   66 100   0   0   0   7  0  0
   67 212  18   0   0   3  0  0
   68  34   0   0   0   4  0  0
   69 1278   0  16  17   0  1  0
   70 100   0   0   0   7  0  0
   71 212  19   0   0   3  0  0
   72  34   0   0   0   4  0  0
   73 1278   0  18  19   0  2  0
   74 100   0   0   0   7  0  0
   75 212  20   0   0   3  0  0
   76  34   0   0   0   4  0  0
   77 1278   0  20  21   0  1  0
   78 100   0   0   0   7  0  0
   79 212  21   0   0   3  0  0
   80  34   0   0   0   4  0  0
   81 1278   0  22  23   0  2  0
   82 100   0   0   0   7  0  0
   83 212  22   0   0   3  0  0
   84  34   0   0   0   4  0  0
   85 1278   0  24  25   0  1  0
   86 100   0   0   0   7  0  0
   87 212  23   0   0   3  0  0
   88  34   0   0   0   4  0  0
   89 1278   0  26  27   0  2  0
   90 100   0   0   0   7  0  0
   91 212  24   0   0   3  0  0
   92  34   0   0   0   4  0  0
   93 1278   0   5  29   0  1  0
   94 100   0   0   0   7  0  0
   95 212  25   0   0   3  0  0
   96  34   0   0   0   4  0  0
   97 1278   0   8   9   0  2  0
   98 100   0   0   0   7  0  0
   99 212  26   0   0   3  0  0
  100  34   0   0   0   4  0  0
  101 1278   0  10  11   0  1  0
  102 100   0   0   0   7  0  0
  103 212  27   0   0   3  0  0
  104  34   0   0   0   4  0  0
  105 1278   0  12  13   0  2  0
  106 100   0   0   0   7  0  0
  107 212  28   0   0   3  0  0
  108  34   0   0   0   4  0  0
  109 1278   0  14  15   0  1  0
  110 100   0   0   0   7  0  0
  111 212  29   0   0   3  0  0
  112  34   0   0   0   4  0  0
  113 1278   0  16  17   0  2  0
  114 100   0   0   0   7  0  0
  115 212  30   0   0   3  0  0
  116  34   0   0   0   4  0  0
  117 1278   0  18  19   0  1  0
  118 100   0   0   0   7  0  0
  119 212  31   0   0   3  0  0
  120  34   0   0   0   4  0  0
  121 1278   0  20  21   0  2  0
  122 100   0   0   0   7  0  0
  123 212  32   0   0   3  0  0
  124  34   0   0   0   4  0  0
  125 1278   0  22  23   0  1  0
  126 100   0   0   0   7  0  0
  127 212  33   0   0   3  0  0
  128  34   0   0   0   4  0  0
  129 1278   0  24  25   0  2  0
  130 100   0   0   0   7  0  0
  131 212  34   0   0   3  0  0
  132  34   0   0   0   4  0  0
  133 1278   0  26  27   0  1  0
  134 100   0   0   0   7  0  0
  135 212  35   0   0   3  0  0
  136  34   0   0   0   4  0  0
  137 1278   0   5  30   0  2  0
  138 100   0   0   0   7  0  0
  139 212  36   0   0   3  0  0
  140  34   0   0   0   4  0  0
  141 1278   0   8   9   0  1  0
  142 100   0   0   0   7  0  0
  143 212  37   0   0   3  0  0
  144  34   0   0   0   4  0  0
  145 1278   0  10  11   0  2  0
  146 100   0   0   0   7  0  0
  147 212  38   0   0   3  0  0
  148  34   0   0   0   4  0  0
  149 1278   0  12  13   0  1  0
  150 100   0   0   0   7  0  0
  151 212  39   0   0   3  0  0
  152  34   0   0   0   4  0  0
  153 1278   0  14  15   0  2  0
  154 100   0   0   0   7  0  0
  155 212  40   0   0   3  0  0
  156  34   0   0   0   4  0  0
  157 1278   0  16  17   0  1  0
  158 100   0   0   0   7  0  0
  159 212  41   0   0   3  0  0
  160  34   0   0   0   4  0  0
  161 1278   0  18  19   0  2  0
  162 100   0   0   0   7  0  0
  163 212  42   0   0   3  0  0
  164  34   0   0   0   4  0  0
  165 1278   0  20  21   0  1  0
  166 100   0   0   0   7  0  0
  167 212  43   0   0   3  0  0
  168  34   0   0   0   4  0  0
  169 1278   0  22  23   0  2  0
  170 100   0   0   0   7  0  0
  171 212  44   0   0   3  0  0
  172  34   0   0   0   4  0  0
  173 1278   0  24  25   0  1  0
  174 100   0   0   0   7  0  0
  175 212  45   0   0   3  0  0
  176  34   0   0   0   4  0  0
  177 1278   0  26  27   0  2  0
  178 100   0   0   0   7  0  0
[RF]
1       638.64 1 2 0 100 0 0
2      68.0101 3 4 0 100 0 3.14159
3      80.0909 3 4 0 100 0 0
4      92.1716 3 4 0 100 0 3.14159
5      104.252 3 4 0 100 0 0
6      116.221 3 4 0 100 0 3.14159
7      128.078 3 4 0 100 0 0
8      139.823 3 4 0 100 0 3.14159
9      151.569 3 4 0 100 0 0
10       163.09 3 4 0 100 0 3.14159
11        174.5 3 4 0 100 0 0
12      185.797 3 4 0 100 0 3.14159
13      196.871 3 4 0 100 0 0
14      207.722 3 4 0 100 0 3.14159
15       218.46 3 4 0 100 0 0
16      228.975 3 4 0 100 0 3.14159
17      239.154 3 4 0 100 0 0
18      249.221 3 4 0 100 0 3.14159
19      259.065 3 4 0 100 0 0
20      268.573 3 4 0 100 0 3.14159
21      277.745 3 4 0 100 0 0
22      286.694 3 4 0 100 0 3.14159
23      295.307 3 4 0 100 0 0
24      303.697 3 4 0 100 0 3.14159
25      311.639 3 4 0 100 0 0
26      319.357 3 4 0 100 0 3.14159
27      326.739 3 4 0 100 0 0
28      333.675 3 4 0 100 0 3.14159
29      340.274 3 4 0 100 0 0
30      346.538 3 4 0 100 0 3.14159
31      352.467 3 4 0 100 0 0
32      357.948 3 4 0 100 0 3.14159
33      362.982 3 4 0 100 0 0
34       367.68 3 4 0 100 0 3.14159
35       371.93 3 4 0 100 0 0
36      375.845 3 4 0 100 0 3.14159
37      379.313 3 4 0 100 0 0
38      382.333 3 4 0 100 0 3.14159
39      384.906 3 4 0 100 0 0
40      387.031 3 4 0 100 0 3.14159
41      388.821 3 4 0 100 0 0
42      390.163 3 4 0 100 0 3.14159
43      391.058 3 4 0 100 0 0
44      391.506 3 4 0 100 0 3.14159
45      391.506 3 4 0 100 0 0
46      391.058 3 4 0 100 0 3.14159
47      390.163 3 4 0 100 0 0
48      388.821 3 4 0 100 0 3.14159
49      387.031 3 4 0 100 0 0
50      384.906 3 4 0 100 0 3.14159
51      382.333 3 4 0 100 0 0
52      379.313 3 4 0 100 0 3.14159
53      375.845 3 4 0 100 0 0
54       371.93 3 4 0 100 0 3.14159
55       367.68 3 4 0 100 0 0
56      362.982 3 4 0 100 0 3.14159
57      357.948 3 4 0 100 0 0
58      352.467 3 4 0 100 0 3.14159
59      346.538 3 4 0 100 0 0
60      340.274 3 4 0 100 0 3.14159
61      333.675 3 4 0 100 0 0
62      326.739 3 4 0 100 0 3.14159
63      319.357 3 4 0 100 0 0
64      311.639 3 4 0 100 0 3.14159
65      303.697 3 4 0 100 0 0
66      295.307 3 4 0 100 0 3.14159
67      286.694 3 4 0 100 0 0
68      277.745 3 4 0 100 0 3.14159
69      268.573 3 4 0 100 0 0
70      259.065 3 4 0 100 0 3.14159
71      249.221 3 4 0 100 0 0
72      239.154 3 4 0 100 0 3.14159
73      228.975 3 4 0 100 0 0
74       218.46 3 4 0 100 0 3.14159
75      207.722 3 4 0 100 0 0
76      196.871 3 4 0 100 0 3.14159
77      185.797 3 4 0 100 0 0
78        174.5 3 4 0 100 0 3.14159
79       163.09 3 4 0 100 0 0
80      151.569 3 4 0 100 0 3.14159
81      139.823 3 4 0 100 0 0
82      128.078 3 4 0 100 0 3.14159
83      116.221 3 4 0 100 0 0
84      104.252 3 4 0 100 0 3.14159
85      92.1716 3 4 0 100 0 0
86      80.0909 3 4 0 100 0 3.14159
87      68.0101 3 4 0 100 0 0
88      55.9294 3 4 0 100 0 3.14159
89     0.838941 3 4 0 100 0 0
90     0.838941 3 4 0 100 0 3.14159
91       71.254 3 4 0 100 0 0
92      86.5787 3 4 0 100 0 3.14159
93      101.903 3 4 0 100 0 0
94      117.116 3 4 0 100 0 3.14159
95      132.217 3 4 0 100 0 0
96      147.318 3 4 0 100 0 3.14159
97      162.195 3 4 0 100 0 0
98      177.072 3 4 0 100 0 3.14159
99      191.614 3 4 0 100 0 0
100      206.156 3 4 0 100 0 3.14159
101      220.362 3 4 0 100 0 0
102      234.456 3 4 0 100 0 3.14159
103      248.215 3 4 0 100 0 0
104       261.75 3 4 0 100 0 3.14159
105      275.061 3 4 0 100 0 0
106      288.036 3 4 0 100 0 3.14159
107      300.788 3 4 0 100 0 0
108      313.205 3 4 0 100 0 3.14159
109      325.173 3 4 0 100 0 0
110      336.919 3 4 0 100 0 3.14159
111      348.216 3 4 0 100 0 0
112      359.179 3 4 0 100 0 3.14159
113      369.805 3 4 0 100 0 0
114      379.872 3 4 0 100 0 3.14159
115      389.604 3 4 0 100 0 0
116      398.888 3 4 0 100 0 3.14159
117      407.725 3 4 0 100 0 0
118      416.115 3 4 0 100 0 3.14159
119      424.057 3 4 0 100 0 0
120      431.439 3 4 0 100 0 3.14159
121      438.375 3 4 0 100 0 0
122      444.862 3 4 0 100 0 3.14159
123      450.791 3 4 0 100 0 0
124      456.272 3 4 0 100 0 3.14159
125      461.082 3 4 0 100 0 0
126      465.444 3 4 0 100 0 3.14159
127      469.359 3 4 0 100 0 0
128      472.603 3 4 0 100 0 3.14159
129        475.4 3 4 0 100 0 0
130      477.637 3 4 0 100 0 3.14159
131      479.315 3 4 0 100 0 0
132      480.322 3 4 0 100 0 3.14159
133      480.881 3 4 0 100 0 0
134      480.881 3 4 0 100 0 3.14159
135      480.322 3 4 0 100 0 0
136      479.315 3 4 0 100 0 3.14159
137      477.637 3 4 0 100 0 0
138        475.4 3 4 0 100 0 3.14159
139      472.603 3 4 0 100 0 0
140      469.359 3 4 0 100 0 3.14159
141      465.444 3 4 0 100 0 0
142      461.082 3 4 0 100 0 3.14159
143      456.272 3 4 0 100 0 0
144      450.791 3 4 0 100 0 3.14159
145      444.862 3 4 0 100 0 0
146      438.375 3 4 0 100 0 3.14159
147      431.439 3 4 0 100 0 0
148      424.057 3 4 0 100 0 3.14159
149      416.115 3 4 0 100 0 0
150      407.725 3 4 0 100 0 3.14159
151      398.888 3 4 0 100 0 0
152      389.604 3 4 0 100 0 3.14159
153      379.872 3 4 0 100 0 0
154      369.805 3 4 0 100 0 3.14159
155      359.179 3 4 0 100 0 0
156      348.216 3 4 0 100 0 3.14159
157      336.919 3 4 0 100 0 0
158      325.173 3 4 0 100 0 3.14159
159      313.205 3 4 0 100 0 0
160      300.788 3 4 0 100 0 3.14159
161      288.036 3 4 0 100 0 0
162      275.061 3 4 0 100 0 3.14159
163       261.75 3 4 0 100 0 0
164      248.215 3 4 0 100 0 3.14159
165      234.456 3 4 0 100 0 0
166      220.362 3 4 0 100 0 3.14159
167      206.156 3 4 0 100 0 0
168      191.614 3 4 0 100 0 3.14159
169      177.072 3 4 0 100 0 0
170      162.195 3 4 0 100 0 3.14159
171      147.318 3 4 0 100 0 0
172      132.217 3 4 0 100 0 3.14159
173      117.116 3 4 0 100 0 0
174      101.903 3 4 0 100 0 3.14159
175      86.5787 3 4 0 100 0 0
176       71.254 3 4 0 100 0 3.14159
177      55.9294 3 4 0 100 0 0
178      82.2162 3 4 0 100 0 3.14159
179      108.391 3 4 0 100 0 0
180      134.566 3 4 0 100 0 3.14159
181      160.629 3 4 0 100 0 0
182      186.469 3 4 0 100 0 3.14159
183      212.196 3 4 0 100 0 0
184      237.812 3 4 0 100 0 3.14159
185      263.092 3 4 0 100 0 0
186      312.757 3 4 0 100 0 0
187      337.254 3 4 0 100 0 3.14159
188      361.192 3 4 0 100 0 0
189      384.794 3 4 0 100 0 3.14159
190      408.061 3 4 0 100 0 0
191      430.768 3 4 0 100 0 3.14159
192      453.028 3 4 0 100 0 0
193      474.729 3 4 0 100 0 3.14159
194      495.982 3 4 0 100 0 0
195      516.564 3 4 0 100 0 3.14159
196      536.587 3 4 0 100 0 0
197      555.938 3 4 0 100 0 3.14159
198      574.619 3 4 0 100 0 0
199       592.74 3 4 0 100 0 3.14159
200      610.078 3 4 0 100 0 0
201      626.745 3 4 0 100 0 3.14159
202      642.629 3 4 0 100 0 0
203       657.73 3 4 0 100 0 3.14159
204      672.048 3 4 0 100 0 0
205      685.582 3 4 0 100 0 3.14159
206      698.334 3 4 0 100 0 0
207      710.191 3 4 0 100 0 3.14159
208      721.265 3 4 0 100 0 0
209      731.333 3 4 0 100 0 3.14159
210      740.617 3 4 0 100 0 0
211      749.006 3 4 0 100 0 3.14159
212      756.501 3 4 0 100 0 0
213      763.101 3 4 0 100 0 3.14159
214      768.694 3 4 0 100 0 0
215      773.392 3 4 0 100 0 3.14159
216      777.195 3 4 0 100 0 0
217      780.103 3 4 0 100 0 3.14159
218      781.893 3 4 0 100 0 0
219        782.9 3 4 0 100 0 3.14159
220        782.9 3 4 0 100 0 0
221      781.893 3 4 0 100 0 3.14159
222      780.103 3 4 0 100 0 0
223      777.195 3 4 0 100 0 3.14159
224      773.392 3 4 0 100 0 0
225      768.694 3 4 0 100 0 3.14159
226      763.101 3 4 0 100 0 0
227      756.501 3 4 0 100 0 3.14159
228      749.006 3 4 0 100 0 0
229      740.617 3 4 0 100 0 3.14159
230      731.333 3 4 0 100 0 0
231      721.265 3 4 0 100 0 3.14159
232      710.191 3 4 0 100 0 0
233      698.334 3 4 0 100 0 3.14159
234      685.582 3 4 0 100 0 0
235      672.048 3 4 0 100 0 3.14159
236       657.73 3 4 0 100 0 0
237      642.629 3 4 0 100 0 3.14159
238      626.745 3 4 0 100 0 0
239      610.078 3 4 0 100 0 3.14159
240       592.74 3 4 0 100 0 0
241      574.619 3 4 0 100 0 3.14159
242      555.938 3 4 0 100 0 0
243      536.587 3 4 0 100 0 3.14159
244      516.564 3 4 0 100 0 0
245      495.982 3 4 0 100 0 3.14159
246      474.729 3 4 0 100 0 0
247      453.028 3 4 0 100 0 3.14159
248      430.768 3 4 0 100 0 0
249      408.061 3 4 0 100 0 3.14159
250      384.794 3 4 0 100 0 0
251      361.192 3 4 0 100 0 3.14159
252      337.254 3 4 0 100 0 0
253      312.757 3 4 0 100 0 3.14159
254      263.092 3 4 0 100 0 3.14159
255      237.812 3 4 0 100 0 0
256      212.196 3 4 0 100 0 3.14159
257      186.469 3 4 0 100 0 0
258      160.629 3 4 0 100 0 3.14159
259      134.566 3 4 0 100 0 0
260      108.391 3 4 0 100 0 3.14159
261      82.2162 3 4 0 100 0 0
262      72.0371 3 4 0 100 0 0
263      88.2566 3 4 0 100 0 3.14159
264       120.36 3 4 0 100 0 3.14159
265      136.244 3 4 0 100 0 0
266      152.128 3 4 0 100 0 3.14159
267      167.788 3 4 0 100 0 0
268      183.448 3 4 0 100 0 3.14159
269      198.773 3 4 0 100 0 0
270      213.986 3 4 0 100 0 3.14159
271      243.852 3 4 0 100 0 3.14159
272      258.394 3 4 0 100 0 0
273        272.6 3 4 0 100 0 3.14159
274      286.582 3 4 0 100 0 0
275      300.341 3 4 0 100 0 3.14159
276      313.652 3 4 0 100 0 0
277       339.38 3 4 0 100 0 0
278      351.684 3 4 0 100 0 3.14159
279      363.653 3 4 0 100 0 0
280      375.174 3 4 0 100 0 3.14159
281      386.248 3 4 0 100 0 0
282      396.987 3 4 0 100 0 3.14159
283      407.166 3 4 0 100 0 0
284       417.01 3 4 0 100 0 3.14159
285      426.294 3 4 0 100 0 0
286      435.131 3 4 0 100 0 3.14159
287      443.408 3 4 0 100 0 0
288      451.238 3 4 0 100 0 3.14159
289      458.509 3 4 0 100 0 0
290      465.333 3 4 0 100 0 3.14159
291      471.597 3 4 0 100 0 0
292      477.301 3 4 0 100 0 3.14159
293      482.447 3 4 0 100 0 0
294      487.033 3 4 0 100 0 3.14159
295       491.06 3 4 0 100 0 0
296      494.528 3 4 0 100 0 3.14159
297      497.436 3 4 0 100 0 0
298      499.785 3 4 0 100 0 3.14159
299      501.575 3 4 0 100 0 0
300      502.693 3 4 0 100 0 3.14159
301      503.253 3 4 0 100 0 0
302      503.253 3 4 0 100 0 3.14159
303      502.693 3 4 0 100 0 0
304      501.575 3 4 0 100 0 3.14159
305      499.785 3 4 0 100 0 0
306      497.436 3 4 0 100 0 3.14159
307      494.528 3 4 0 100 0 0
308       491.06 3 4 0 100 0 3.14159
309      487.033 3 4 0 100 0 0
310      482.447 3 4 0 100 0 3.14159
311      477.301 3 4 0 100 0 0
312      471.597 3 4 0 100 0 3.14159
313      465.333 3 4 0 100 0 0
314      458.509 3 4 0 100 0 3.14159
315      451.238 3 4 0 100 0 0
316      443.408 3 4 0 100 0 3.14159
317      435.131 3 4 0 100 0 0
318      426.294 3 4 0 100 0 3.14159
319       417.01 3 4 0 100 0 0
320      407.166 3 4 0 100 0 3.14159
321      396.987 3 4 0 100 0 0
322      386.248 3 4 0 100 0 3.14159
323      375.174 3 4 0 100 0 0
324      363.653 3 4 0 100 0 3.14159
325      351.684 3 4 0 100 0 0
326       339.38 3 4 0 100 0 3.14159
327      313.652 3 4 0 100 0 3.14159
328      300.341 3 4 0 100 0 0
329      286.582 3 4 0 100 0 3.14159
330        272.6 3 4 0 100 0 0
331      258.394 3 4 0 100 0 3.14159
332      243.852 3 4 0 100 0 0
333      213.986 3 4 0 100 0 0
334      198.773 3 4 0 100 0 3.14159
335      183.448 3 4 0 100 0 0
336      167.788 3 4 0 100 0 3.14159
337      152.128 3 4 0 100 0 0
338      136.244 3 4 0 100 0 3.14159
339       120.36 3 4 0 100 0 0
340      88.2566 3 4 0 100 0 0
341      72.0371 3 4 0 100 0 3.14159
342      64.7662 3 4 0 100 0 3.14159
343      73.7149 3 4 0 100 0 0
344      82.5518 3 4 0 100 0 3.14159
345      91.3886 3 4 0 100 0 0
346      100.114 3 4 0 100 0 3.14159
347      108.839 3 4 0 100 0 0
348      117.452 3 4 0 100 0 3.14159
349      126.065 3 4 0 100 0 0
350      134.454 3 4 0 100 0 3.14159
351      142.844 3 4 0 100 0 0
352      151.121 3 4 0 100 0 3.14159
353      159.287 3 4 0 100 0 0
354      167.229 3 4 0 100 0 3.14159
355      175.059 3 4 0 100 0 0
356      182.777 3 4 0 100 0 3.14159
357      190.384 3 4 0 100 0 0
358      197.654 3 4 0 100 0 3.14159
359      204.813 3 4 0 100 0 0
360      211.861 3 4 0 100 0 3.14159
361      218.572 3 4 0 100 0 0
362      225.172 3 4 0 100 0 3.14159
363      231.548 3 4 0 100 0 0
364      237.588 3 4 0 100 0 3.14159
365      243.517 3 4 0 100 0 0
366      249.109 3 4 0 100 0 3.14159
367      254.479 3 4 0 100 0 0
368      259.624 3 4 0 100 0 3.14159
369      264.434 3 4 0 100 0 0
370       269.02 3 4 0 100 0 3.14159
371      273.383 3 4 0 100 0 0
372       277.41 3 4 0 100 0 3.14159
373      281.101 3 4 0 100 0 0
374      284.569 3 4 0 100 0 3.14159
375      287.701 3 4 0 100 0 0
376      290.497 3 4 0 100 0 3.14159
377       293.07 3 4 0 100 0 0
378      297.209 3 4 0 100 0 0
379      298.775 3 4 0 100 0 3.14159
380      300.005 3 4 0 100 0 0
381      301.012 3 4 0 100 0 3.14159
382      301.683 3 4 0 100 0 0
383      302.019 3 4 0 100 0 3.14159
384      302.019 3 4 0 100 0 0
385      301.683 3 4 0 100 0 3.14159
386      301.012 3 4 0 100 0 0
387      300.005 3 4 0 100 0 3.14159
388      298.775 3 4 0 100 0 0
389      297.209 3 4 0 100 0 3.14159
390       293.07 3 4 0 100 0 3.14159
391      290.497 3 4 0 100 0 0
392      287.701 3 4 0 100 0 3.14159
393      284.569 3 4 0 100 0 0
394      281.101 3 4 0 100 0 3.14159
395       277.41 3 4 0 100 0 0
396      273.383 3 4 0 100 0 3.14159
397       269.02 3 4 0 100 0 0
398      264.434 3 4 0 100 0 3.14159
399      259.624 3 4 0 100 0 0
400      254.479 3 4 0 100 0 3.14159
401      249.109 3 4 0 100 0 0
402      243.517 3 4 0 100 0 3.14159
403      237.588 3 4 0 100 0 0
404      231.548 3 4 0 100 0 3.14159
405      225.172 3 4 0 100 0 0
406      218.572 3 4 0 100 0 3.14159
407      211.861 3 4 0 100 0 0
408      204.813 3 4 0 100 0 3.14159
409      197.654 3 4 0 100 0 0
410      190.384 3 4 0 100 0 3.14159
411      182.777 3 4 0 100 0 0
412      175.059 3 4 0 100 0 3.14159
413      167.229 3 4 0 100 0 0
414      159.287 3 4 0 100 0 3.14159
415      151.121 3 4 0 100 0 0
416      142.844 3 4 0 100 0 3.14159
417      134.454 3 4 0 100 0 0
418      126.065 3 4 0 100 0 3.14159
419      117.452 3 4 0 100 0 0
420      108.839 3 4 0 100 0 3.14159
421      100.114 3 4 0 100 0 0
422      91.3886 3 4 0 100 0 3.14159
423      82.5518 3 4 0 100 0 0
424      73.7149 3 4 0 100 0 3.14159
425      64.7662 3 4 0 100 0 0

# Format of arbitrary gradients:
#   time_shape_id of 0 means default timing (stepping with grad_raster starting at 1/2 of grad_raster)
# id amplitude amp_shape_id time_shape_id delay
# ..      Hz/m       ..         ..          us
[GRADIENTS]
5  1.02182e+06 5 0 60
6 -1.02182e+06 6 0 60
8  1.02182e+06 7 0 60
9  1.02182e+06 8 0 60
10  1.02182e+06 9 0 60
11  1.02182e+06 10 0 60
12 -1.02182e+06 11 0 60
13  1.02181e+06 12 0 60
14 -1.02182e+06 13 0 60
15  1.02182e+06 14 0 60
16 -1.02182e+06 15 0 60
17  1.02182e+06 16 0 60
18 -1.02182e+06 17 0 60
19 -1.02182e+06 18 0 60
20 -1.02182e+06 19 0 60
21 -1.02182e+06 20 0 60
22 -1.02182e+06 21 0 60
23 -1.02182e+06 22 0 60
24  1.02181e+06 23 0 60
25 -1.02182e+06 24 0 60
26  1.02182e+06 25 0 60
27 -1.02182e+06 26 0 60
28 -1.02182e+06 27 0 60
29 -1.02182e+06 28 0 60
30 -1.02182e+06 29 0 60
31 -1.02182e+06 30 0 60
32 -1.02182e+06 31 0 60
33 -1.02182e+06 32 0 60
34 -1.02182e+06 33 0 60
35 -1.02182e+06 34 0 60
36 -1.02182e+06 35 0 60
37 -1.02182e+06 36 0 60
38  1.02182e+06 37 0 60
39 -1.02182e+06 38 0 60
40  1.02182e+06 39 0 60
41 -1.02182e+06 40 0 60
42  1.02182e+06 41 0 60
43 -1.02182e+06 42 0 60
44  1.02182e+06 43 0 60
45 -1.02182e+06 44 0 60
46  1.02182e+06 45 0 60
47 -1.02182e+06 46 0 60
48  1.02182e+06 47 0 60
49  1.02182e+06 48 0 60
50 -1.02182e+06 49 0 60
51 -1.02182e+06 50 0 60
52  1.02182e+06 51 0 60
53  1.02182e+06 52 0 60
54 -1.02182e+06 53 0 60
55 -1.02182e+06 54 0 60
56  1.02182e+06 55 0 60
57  1.02182e+06 56 0 60
58 -1.02182e+06 57 0 60
59 -1.02182e+06 58 0 60
60 -1.02182e+06 59 0 60
61  1.02182e+06 60 0 60
62 -1.02182e+06 61 0 60
63 -1.02182e+06 62 0 60
64 -1.02182e+06 63 0 60
65  1.02182e+06 64 0 60
66 -1.02182e+06 65 0 60
67 -1.02182e+06 66 0 60

# Format of trapezoid gradients:
# id amplitude rise flat fall delay
# ..      Hz/m   us   us   us    us
[TRAP]
 1      5199.06  10 20000  10  90
 2       153274 800 19200 600   0
 3      16666.7  10 2000  10  90
 4      -972917 120    0 120   0
 7  1.00677e+06 140  340 140 380
68      -938194 120    0 120   0
69  1.01933e+06 140  330 140 390
70      -903472 120    0 120   0
71  1.01046e+06 140  330 140 390
72      -868750 120    0 120   0
73   1.0016e+06 140  330 140 390
74      -834028 120    0 120   0
75  1.01431e+06 140  320 140 400
76      -799306 120    0 120   0
77  1.00525e+06 140  320 140 400
78      -764583 120    0 120   0
79  1.01833e+06 140  310 140 410
80      -729861 120    0 120   0
81  1.00907e+06 140  310 140 410
82      -695139 120    0 120   0
83       999815 140  310 140 410
84      -660417 120    0 120   0
85  1.01307e+06 140  300 140 420
86      -625694 120    0 120   0
87   1.0036e+06 140  300 140 420
88      -590972 120    0 120   0
89  1.01725e+06 140  290 140 430
90      -556250 120    0 120   0
91  1.00756e+06 140  290 140 430
92      -521528 120    0 120   0
93  1.02163e+06 140  280 140 440
94      -486806 120    0 120   0
95  1.01171e+06 140  280 140 440
96      -452083 120    0 120   0
97  1.00179e+06 140  280 140 440
98      -417361 120    0 120   0
99  1.01606e+06 140  270 140 450
100      -382639 120    0 120   0
101  1.00589e+06 140  270 140 450
102      -347917 120    0 120   0
103  1.02062e+06 140  260 140 460
104      -313194 120    0 120   0
105  1.01021e+06 140  260 140 460
106      -278472 120    0 120   0
107       999792 140  260 140 460
108      -243750 120    0 120   0
109  1.01474e+06 140  250 140 470
110      -209028 120    0 120   0
111  1.00406e+06 140  250 140 470
112      -174306 120    0 120   0
113  1.01952e+06 140  240 140 480
114      -139583 120    0 120   0
115  1.00855e+06 140  240 140 480
116      -104861 120    0 120   0
117       997588 140  240 140 480
118     -70138.9 120    0 120   0
119  1.01329e+06 140  230 140 490
120     -35416.7 120    0 120   0
121  1.00203e+06 140  230 140 490
122     -694.444 120    0 120   0
123  1.01829e+06 140  220 140 500
124      34027.8 120    0 120   0
125  1.00671e+06 140  220 140 500
126        68750 120    0 120   0
127       995139 130  230 130 510
128       103472 120    0 120   0
129  1.01167e+06 140  210 140 510
130       138194 120    0 120   0
131       999762 140  210 140 510
132       172917 120    0 120   0
133  1.01691e+06 140  200 140 520
134       207639 120    0 120   0
135  1.00466e+06 140  200 140 520
136       242361 120    0 120   0
137       992402 130  210 130 530
138       277083 120    0 120   0
139  1.00985e+06 140  190 140 530
140       311806 120    0 120   0
141       997222 130  200 130 540
142       346528 120    0 120   0
143  1.01536e+06 140  180 140 540
144       381250 120    0 120   0
145  1.00234e+06 140  180 140 540
146       415972 120    0 120   0
147  1.02124e+06 140  170 140 550
148       450694 120    0 120   0
149   1.0078e+06 140  170 140 550
150       485417 120    0 120   0
151       994355 130  180 130 560
152       520139 120    0 120   0
153  1.01361e+06 140  160 140 560
154       554861 120    0 120   0
155       999722 140  160 140 560
156       589583 120    0 120   0
157  1.01983e+06 140  150 140 570
158       624306 120    0 120   0
159  1.00546e+06 140  150 140 570
160       659028 120    0 120   0
161       991092 130  160 130 580

# Format of ADC events:
# id num dwell delay freq phase
# ..  ..    ns    us   Hz   rad
[ADC]
1 5104 2500 10 0 3.14159
2 5104 2500 10 0 0

# Sequence Shapes
[SHAPES]

shape_id 1
num_samples 20000
0.0006712
5e-07
6e-07
5e-07
5e-07
0
6e-07
5e-07
6e-07
5e-07
5e-07
0
6e-07
5e-07
6e-07
5e-07
6e-07
5e-07
5e-07
0
6e-07
5e-07
6e-07
5e-07
6e-07
5e-07
6e-07
5e-07
6e-07
5e-07
5e-07
0
6e-07
5e-07
6e-07
5e-07
6e-07
5e-07
6e-07
6e-07
0
5e-07
6e-07
5e-07
6e-07
5e-07
6e-07
5e-07
6e-07
5e-07
6e-07
