# Pulseq sequence file
# Created by MATLAB mr toolbox

[VERSION]
major 1
minor 4
revision 0

[DEFINITIONS]
AdcRasterTime 1e-07 
Averages 1 
BaseResolution 256 
BlockDurationRaster 1e-05 
Dephasing 2 
DiscardPost 20 
DiscardPre 20 
FOV 0.3 0.3 0.005 
Frames 382 
GradientRasterTime 1e-05 
Interleaves 9 
MaxGrad 24 
MaxSlew 180.18 
Name FISP 3D spiral 
RadiofrequencyRasterTime 1e-06 
RasterTime 1e-06 
RealDwellTime 2.5e-06 
Repetitions 1 
Resolution 0.001171875 
TE 0.00135 
TR 0.01879 0.01879 0.01879 0.01879 0.01879 0.01879 0.01879 0.01879 0.01879 0.01879 0.01879 0.01879 0.01879 0.01879 0.01879 0.01879 0.01879 0.01879 0.01879 0.01879 0.01879 0.01879 0.01879 0.01879 0.01879 0.01879 0.01879 0.01879 0.01879 0.01879 0.01879 0.01879 0.01879 0.01879 0.01879 0.01879 0.01879 0.01879 0.01879 0.01879 0.01879 0.01879 0.01879 0.01879 0.01879 0.01879 0.01879 0.01879 0.01879 0.01879 0.01879 0.01879 0.01879 0.01879 0.01879 0.01879 0.01879 0.01879 0.01879 0.01879 0.01879 0.01879 0.01879 0.01879 0.01879 0.01879 0.01879 0.01879 0.01879 0.01879 0.01879 0.01879 0.01879 0.01879 0.01879 0.01879 0.01879 0.01879 0.01879 0.01879 0.01879 0.01879 0.01879 0.01879 0.01879 0.01879 0.01879 0.01879 0.01879 0.01879 0.01879 0.01879 0.01879 0.01879 0.01879 0.01879 0.01879 0.01879 0.01879 0.01879 0.01879 0.01879 0.01879 0.01879 0.01879 0.01879 0.01879 0.01879 0.01879 0.01879 0.01879 0.01879 0.01879 0.01879 0.01879 0.01879 0.01879 0.01879 0.01879 0.01879 0.01879 0.01879 0.01879 0.01879 0.01879 0.01879 0.01879 0.01879 0.01879 0.01879 0.01879 0.01879 0.01879 0.01879 0.01879 0.01879 0.01879 0.01879 0.01879 0.01879 0.01879 0.01879 0.01879 0.01879 0.01879 0.01879 0.01879 0.01879 0.01879 0.01879 0.01879 0.01879 0.01879 0.01879 0.01879 0.01879 0.01879 0.01879 0.01879 0.01879 0.01879 0.01879 0.01879 0.01879 0.01879 0.01879 0.01879 0.01879 0.01879 0.01879 0.01879 0.01879 0.01879 0.01879 0.01879 0.01879 0.01879 0.01879 0.01879 0.01879 0.01879 0.01879 0.01879 0.01879 0.01879 0.01879 0.01879 0.01879 0.01879 0.01879 0.01879 0.01879 0.01879 0.01879 0.01879 0.01879 0.01879 0.01879 0.01879 0.01879 0.01879 0.01879 0.01879 0.01879 0.01879 0.01879 0.01879 0.01879 0.01879 0.01879 0.01879 0.01879 0.01879 0.01879 0.01879 0.01879 0.01879 0.01879 0.01879 0.01879 0.01879 0.01879 0.01879 0.01879 0.01879 0.01879 0.01879 0.01879 0.01879 0.01879 0.01879 0.01879 0.01879 0.01879 0.01879 0.01879 0.01879 0.01879 0.01879 0.01879 0.01879 0.01879 0.01879 0.01879 0.01879 0.01879 0.01879 0.01879 0.01879 0.01879 0.01879 0.01879 0.01879 0.01879 0.01879 0.01879 0.01879 0.01879 0.01879 0.01879 0.01879 0.01879 0.01879 0.01879 0.01879 0.01879 0.01879 0.01879 0.01879 0.01879 0.01879 0.01879 0.01879 0.01879 0.01879 0.01879 0.01879 0.01879 0.01879 0.01879 0.01879 0.01879 0.01879 0.01879 0.01879 0.01879 0.01879 0.01879 0.01879 0.01879 0.01879 0.01879 0.01879 0.01879 0.01879 0.01879 0.01879 0.01879 0.01879 0.01879 0.01879 0.01879 0.01879 0.01879 0.01879 0.01879 0.01879 0.01879 0.01879 0.01879 0.01879 0.01879 0.01879 0.01879 0.01879 0.01879 0.01879 0.01879 0.01879 0.01879 0.01879 0.01879 0.01879 0.01879 0.01879 0.01879 0.01879 0.01879 0.01879 0.01879 0.01879 0.01879 0.01879 0.01879 0.01879 0.01879 0.01879 0.01879 0.01879 0.01879 0.01879 0.01879 0.01879 0.01879 0.01879 0.01879 0.01879 0.01879 0.01879 0.01879 0.01879 0.01879 0.01879 0.01879 0.01879 0.01879 0.01879 0.01879 0.01879 0.01879 0.01879 0.01879 0.01879 0.01879 0.01879 0.01879 0.01879 0.01879 0.01879 0.01879 0.01879 0.01879 0.01879 0.01879 0.01879 0.01879 0.01879 0.01879 0.01879 0.01879 0.01879 0.01879 
TotalDuration 444.3216 
gtype 0 
sptype 0 
us_0 0.5 
us_1 1 
us_r 2 
ustype 0 

# Format of blocks:
# NUM DUR RF  GX  GY  GZ  ADC  EXT
[BLOCKS]
    1 2012   1   0   0   1  0  0
    2 2060   0   0   0   2  0  0
    3 212   2   0   0   3  0  0
    4  34   0   0   0   4  0  0
    5 1543   0   5   6   0  1  0
    6 100   0   0   0   7  0  0
    7 212   3   0   0   3  0  0
    8  34   0   0   0   4  0  0
    9 1543   0   8   9   0  2  0
   10 100   0   0   0   7  0  0
   11 212   4   0   0   3  0  0
   12  34   0   0   0   4  0  0
   13 1543   0  10  11   0  1  0
   14 100   0   0   0   7  0  0
   15 212   5   0   0   3  0  0
   16  34   0   0   0   4  0  0
   17 1543   0  12  13   0  2  0
   18 100   0   0   0   7  0  0
   19 212   6   0   0   3  0  0
   20  34   0   0   0   4  0  0
   21 1543   0  14  15   0  1  0
   22 100   0   0   0   7  0  0
   23 212   7   0   0   3  0  0
   24  34   0   0   0   4  0  0
   25 1543   0  16  17   0  2  0
   26 100   0   0   0   7  0  0
   27 212   8   0   0   3  0  0
   28  34   0   0   0   4  0  0
   29 1543   0  18  19   0  1  0
   30 100   0   0   0   7  0  0
   31 212   9   0   0   3  0  0
   32  34   0   0   0   4  0  0
   33 1543   0  20  21   0  2  0
   34 100   0   0   0   7  0  0
   35 212  10   0   0   3  0  0
   36  34   0   0   0   4  0  0
   37 1543   0  22  23   0  1  0
   38 100   0   0   0   7  0  0
   39 212  11   0   0   3  0  0
   40  34   0   0   0   4  0  0
   41 1543   0   5  24   0  2  0
   42 100   0   0   0   7  0  0
   43 212  12   0   0   3  0  0
   44  34   0   0   0   4  0  0
   45 1543   0   8   9   0  1  0
   46 100   0   0   0   7  0  0
   47 212  13   0   0   3  0  0
   48  34   0   0   0   4  0  0
   49 1543   0  10  11   0  2  0
   50 100   0   0   0   7  0  0
   51 212  14   0   0   3  0  0
   52  34   0   0   0   4  0  0
   53 1543   0  12  13   0  1  0
   54 100   0   0   0   7  0  0
   55 212  15   0   0   3  0  0
   56  34   0   0   0   4  0  0
   57 1543   0  14  15   0  2  0
   58 100   0   0   0   7  0  0
   59 212  16   0   0   3  0  0
   60  34   0   0   0   4  0  0
   61 1543   0  16  17   0  1  0
   62 100   0   0   0   7  0  0
   63 212  17   0   0   3  0  0
   64  34   0   0   0   4  0  0
   65 1543   0  18  19   0  2  0
   66 100   0   0   0   7  0  0
   67 212  18   0   0   3  0  0
   68  34   0   0   0   4  0  0
   69 1543   0  20  21   0  1  0
   70 100   0   0   0   7  0  0
   71 212  19   0   0   3  0  0
   72  34   0   0   0   4  0  0
   73 1543   0  22  23   0  2  0
   74 100   0   0   0   7  0  0
   75 212  20   0   0   3  0  0
   76  34   0   0   0   4  0  0
   77 1543   0   5  25   0  1  0
   78 100   0   0   0   7  0  0
   79 212  21   0   0   3  0  0
   80  34   0   0   0   4  0  0
   81 1543   0   8   9   0  2  0
   82 100   0   0   0   7  0  0
   83 212  22   0   0   3  0  0
   84  34   0   0   0   4  0  0
   85 1543   0  10  11   0  1  0
   86 100   0   0   0   7  0  0
   87 212  23   0   0   3  0  0
   88  34   0   0   0   4  0  0
   89 1543   0  12  13   0  2  0
   90 100   0   0   0   7  0  0
   91 212  24   0   0   3  0  0
   92  34   0   0   0   4  0  0
   93 1543   0  14  15   0  1  0
   94 100   0   0   0   7  0  0
   95 212  25   0   0   3  0  0
   96  34   0   0   0   4  0  0
   97 1543   0  16  17   0  2  0
   98 100   0   0   0   7  0  0
   99 212  26   0   0   3  0  0
  100  34   0   0   0   4  0  0
  101 1543   0  18  19   0  1  0
  102 100   0   0   0   7  0  0
  103 212  27   0   0   3  0  0
  104  34   0   0   0   4  0  0
  105 1543   0  20  21   0  2  0
  106 100   0   0   0   7  0  0
  107 212  28   0   0   3  0  0
  108  34   0   0   0   4  0  0
  109 1543   0  22  23   0  1  0
  110 100   0   0   0   7  0  0
  111 212  29   0   0   3  0  0
  112  34   0   0   0   4  0  0
  113 1543   0   5  26   0  2  0
  114 100   0   0   0   7  0  0
  115 212  30   0   0   3  0  0
  116  34   0   0   0   4  0  0
  117 1543   0   8   9   0  1  0
  118 100   0   0   0   7  0  0
  119 212  31   0   0   3  0  0
  120  34   0   0   0   4  0  0
  121 1543   0  10  11   0  2  0
  122 100   0   0   0   7  0  0
  123 212  32   0   0   3  0  0
  124  34   0   0   0   4  0  0
  125 1543   0  12  13   0  1  0
  126 100   0   0   0   7  0  0
  127 212  33   0   0   3  0  0
  128  34   0   0   0   4  0  0
  129 1543   0  14  15   0  2  0
  130 100   0   0   0   7  0  0
  131 212  34   0   0   3  0  0
  132  34   0   0   0   4  0  0
  133 1543   0  16  17   0  1  0
  134 100   0   0   0   7  0  0
  135 212  35   0   0   3  0  0
  136  34   0   0   0   4  0  0
  137 1543   0  18  19   0  2  0
  138 100   0   0   0   7  0  0
  139 212  36   0   0   3  0  0
  140  34   0   0   0   4  0  0
  141 1543   0  20  21   0  1  0
  142 100   0   0   0   7  0  0
  143 212  37   0   0   3  0  0
  144  34   0   0   0   4  0  0
  145 1543   0  22  23   0  2  0
  146 100   0   0   0   7  0  0
  147 212  38   0   0   3  0  0
  148  34   0   0   0   4  0  0
  149 1543   0   5  27   0  1  0
  150 100   0   0   0   7  0  0
  151 212  37   0   0   3  0  0
  152  34   0   0   0   4  0  0
  153 1543   0   8   9   0  2  0
  154 100   0   0   0   7  0  0
  155 212  36   0   0   3  0  0
  156  34   0   0   0   4  0  0
  157 1543   0  10  11   0  1  0
  158 100   0   0   0   7  0  0
  159 212  35   0   0   3  0  0
  160  34   0   0   0   4  0  0
  161 1543   0  12  13   0  2  0
  162 100   0   0   0   7  0  0
  163 212  34   0   0   3  0  0
  164  34   0   0   0   4  0  0
  165 1543   0  14  15   0  1  0
  166 100   0   0   0   7  0  0
  167 212  33   0   0   3  0  0
  168  34   0   0   0   4  0  0
  169 1543   0  16  17   0  2  0
  170 100   0   0   0   7  0  0
  171 212  32   0   0   3  0  0
  172  34   0   0   0   4  0  0
  173 1543   0  18  19   0  1  0
  174 100   0   0   0   7  0  0
  175 212  31   0   0   3  0  0
  176  34   0   0   0   4  0  0
  177 1543   0  20  21   0  2  0
  178 100   0   0   0   7  0  0
  179 212  30   0   0   3  0  0
  180  34   0   0   0   4  0  0
  181 1543   0  22  23   0  1  0
  182 100   0   0   0   7  0  0
  183 212  29   0   0   3  0  0
  184  34   0   0   0   4  0  0
  185 1543   0   5  28   0  2  0
  186 100   0   0   0   7  0  0
  187 212  28   0   0   3  0  0
  188  34   0   0   0   4  0  0
  189 1543   0   8   9   0  1  0
  190 100   0   0   0   7  0  0
  191 212  27   0   0   3  0  0
  192  34   0   0   0   4  0  0
  193 1543   0  10  11   0  2  0
  194 100   0   0   0   7  0  0
  195 212  26   0   0   3  0  0
[RF]
1       638.64 1 2 0 100 0 0
2      70.1355 3 4 0 100 0 3.14159
3      84.3415 3 4 0 100 0 0
4      98.5476 3 4 0 100 0 3.14159
5      112.642 3 4 0 100 0 0
6      126.624 3 4 0 100 0 3.14159
7      140.495 3 4 0 100 0 0
8      154.141 3 4 0 100 0 3.14159
9      167.676 3 4 0 100 0 0
10      181.099 3 4 0 100 0 3.14159
11      194.187 3 4 0 100 0 0
12      207.051 3 4 0 100 0 3.14159
13      219.579 3 4 0 100 0 0
14      231.883 3 4 0 100 0 3.14159
15      243.852 3 4 0 100 0 0
16      255.485 3 4 0 100 0 3.14159
17      266.783 3 4 0 100 0 0
18      277.633 3 4 0 100 0 3.14159
19      288.148 3 4 0 100 0 0
20      298.215 3 4 0 100 0 3.14159
21      307.835 3 4 0 100 0 0
22      317.008 3 4 0 100 0 3.14159
23      325.733 3 4 0 100 0 0
24       334.01 3 4 0 100 0 3.14159
25      341.729 3 4 0 100 0 0
26      348.888 3 4 0 100 0 3.14159
27      355.599 3 4 0 100 0 0
28      361.751 3 4 0 100 0 3.14159
29      367.344 3 4 0 100 0 0
30      372.378 3 4 0 100 0 3.14159
31      376.852 3 4 0 100 0 0
32      380.655 3 4 0 100 0 3.14159
33      384.011 3 4 0 100 0 0
34      386.696 3 4 0 100 0 3.14159
35      388.821 3 4 0 100 0 0
36      390.275 3 4 0 100 0 3.14159
37       391.17 3 4 0 100 0 0
38      391.506 3 4 0 100 0 3.14159
39      55.9294 3 4 0 100 0 0
40     0.838941 3 4 0 100 0 3.14159
41     0.838941 3 4 0 100 0 0
42      73.9387 3 4 0 100 0 0
43      91.9479 3 4 0 100 0 3.14159
44      109.957 3 4 0 100 0 0
45      127.743 3 4 0 100 0 3.14159
46      145.528 3 4 0 100 0 0
47       163.09 3 4 0 100 0 3.14159
48      180.428 3 4 0 100 0 0
49      197.543 3 4 0 100 0 3.14159
50      214.433 3 4 0 100 0 0
51      230.988 3 4 0 100 0 3.14159
52       247.32 3 4 0 100 0 0
53      263.204 3 4 0 100 0 3.14159
54      278.752 3 4 0 100 0 0
55      293.965 3 4 0 100 0 3.14159
56       308.73 3 4 0 100 0 0
57      322.936 3 4 0 100 0 3.14159
58      336.807 3 4 0 100 0 0
59      350.006 3 4 0 100 0 3.14159
60      362.758 3 4 0 100 0 0
61      375.062 3 4 0 100 0 3.14159
62      386.696 3 4 0 100 0 0
63      397.658 3 4 0 100 0 3.14159
64      408.061 3 4 0 100 0 0
65      417.904 3 4 0 100 0 3.14159
66      426.965 3 4 0 100 0 0
67      435.466 3 4 0 100 0 3.14159
68      443.296 3 4 0 100 0 0
69      450.343 3 4 0 100 0 3.14159
70      456.719 3 4 0 100 0 0
71      462.312 3 4 0 100 0 3.14159
72      467.234 3 4 0 100 0 0
73      471.485 3 4 0 100 0 3.14159
74      474.841 3 4 0 100 0 0
75      477.525 3 4 0 100 0 3.14159
76      479.427 3 4 0 100 0 0
77      480.657 3 4 0 100 0 3.14159
78      480.993 3 4 0 100 0 0
79      55.9294 3 4 0 100 0 3.14159
80      86.8024 3 4 0 100 0 3.14159
81      117.564 3 4 0 100 0 0
82      148.325 3 4 0 100 0 3.14159
83      178.862 3 4 0 100 0 0
84      209.064 3 4 0 100 0 3.14159
85      239.154 3 4 0 100 0 0
86      268.797 3 4 0 100 0 3.14159
87      298.104 3 4 0 100 0 0
88      327.075 3 4 0 100 0 3.14159
89      355.375 3 4 0 100 0 0
90      383.228 3 4 0 100 0 3.14159
91      410.522 3 4 0 100 0 0
92      437.144 3 4 0 100 0 3.14159
93      463.095 3 4 0 100 0 0
94      488.264 3 4 0 100 0 3.14159
95      512.649 3 4 0 100 0 0
96      536.251 3 4 0 100 0 3.14159
97       559.07 3 4 0 100 0 0
98      580.883 3 4 0 100 0 3.14159
99      601.688 3 4 0 100 0 0
100      621.599 3 4 0 100 0 3.14159
101      640.503 3 4 0 100 0 0
102      658.289 3 4 0 100 0 3.14159
103      675.068 3 4 0 100 0 0
104      690.728 3 4 0 100 0 3.14159
105      705.158 3 4 0 100 0 0
106      718.469 3 4 0 100 0 3.14159
107       730.55 3 4 0 100 0 0
108      741.512 3 4 0 100 0 3.14159
109      751.132 3 4 0 100 0 0
110      759.521 3 4 0 100 0 3.14159
111       766.68 3 4 0 100 0 0
112      772.609 3 4 0 100 0 3.14159
113      777.083 3 4 0 100 0 0
114      780.439 3 4 0 100 0 3.14159
115       782.34 3 4 0 100 0 0
116      783.011 3 4 0 100 0 3.14159
117      74.9454 3 4 0 100 0 0
118      93.8495 3 4 0 100 0 3.14159
119      112.754 3 4 0 100 0 0
120      131.546 3 4 0 100 0 3.14159
121      150.226 3 4 0 100 0 0
122      168.683 3 4 0 100 0 3.14159
123      186.916 3 4 0 100 0 0
124      205.037 3 4 0 100 0 3.14159
125      222.711 3 4 0 100 0 0
126      240.273 3 4 0 100 0 3.14159
127      257.387 3 4 0 100 0 0
128      274.166 3 4 0 100 0 3.14159
129      290.497 3 4 0 100 0 0
130      306.493 3 4 0 100 0 3.14159
131      322.041 3 4 0 100 0 0
132       337.03 3 4 0 100 0 3.14159
133      351.572 3 4 0 100 0 0
134      365.554 3 4 0 100 0 3.14159
135      378.978 3 4 0 100 0 0
136      391.841 3 4 0 100 0 3.14159
137      404.034 3 4 0 100 0 0
138      415.667 3 4 0 100 0 3.14159
139      426.629 3 4 0 100 0 0
140       436.92 3 4 0 100 0 3.14159
141       446.54 3 4 0 100 0 0
142      455.489 3 4 0 100 0 3.14159
143      463.655 3 4 0 100 0 0
144      471.149 3 4 0 100 0 3.14159
145      477.861 3 4 0 100 0 0
146      483.789 3 4 0 100 0 3.14159
147      488.935 3 4 0 100 0 0
148      493.297 3 4 0 100 0 3.14159
149      496.877 3 4 0 100 0 0
150      499.785 3 4 0 100 0 3.14159
151      501.798 3 4 0 100 0 0
152      502.917 3 4 0 100 0 3.14159
153      503.364 3 4 0 100 0 0
154      66.3323 3 4 0 100 0 3.14159
155       76.847 3 4 0 100 0 0
156       87.138 3 4 0 100 0 3.14159
157      97.5409 3 4 0 100 0 0
158       107.72 3 4 0 100 0 3.14159
159      117.899 3 4 0 100 0 0
160      127.966 3 4 0 100 0 3.14159
161      137.922 3 4 0 100 0 0
162      147.654 3 4 0 100 0 3.14159
163      157.273 3 4 0 100 0 0
164       166.67 3 4 0 100 0 3.14159
165      175.954 3 4 0 100 0 0
166      184.903 3 4 0 100 0 3.14159
167      193.739 3 4 0 100 0 0
168      202.241 3 4 0 100 0 3.14159
169      210.518 3 4 0 100 0 0
170       218.46 3 4 0 100 0 3.14159
171      226.178 3 4 0 100 0 0
172      233.561 3 4 0 100 0 3.14159
173      240.608 3 4 0 100 0 0
174      247.432 3 4 0 100 0 3.14159
175      253.808 3 4 0 100 0 0
176      259.848 3 4 0 100 0 3.14159
177      265.441 3 4 0 100 0 0
178       270.81 3 4 0 100 0 3.14159
179       275.62 3 4 0 100 0 0
180      280.206 3 4 0 100 0 3.14159
181      284.233 3 4 0 100 0 0
182      287.924 3 4 0 100 0 3.14159
183       291.28 3 4 0 100 0 0
184      294.077 3 4 0 100 0 3.14159
185      296.538 3 4 0 100 0 0
186      298.439 3 4 0 100 0 3.14159
187      300.005 3 4 0 100 0 0
188      301.124 3 4 0 100 0 3.14159
189      301.795 3 4 0 100 0 0
190      302.019 3 4 0 100 0 3.14159

# Format of arbitrary gradients:
#   time_shape_id of 0 means default timing (stepping with grad_raster starting at 1/2 of grad_raster)
# id amplitude amp_shape_id time_shape_id delay
# ..      Hz/m       ..         ..          us
[GRADIENTS]
5  1.02182e+06 5 0 60
6 -1.02182e+06 6 0 60
8  1.02182e+06 7 0 60
9  1.02182e+06 8 0 60
10  1.02182e+06 9 0 60
11  1.02182e+06 10 0 60
12 -1.02182e+06 11 0 60
13  1.02182e+06 12 0 60
14 -1.02182e+06 13 0 60
15  1.02182e+06 14 0 60
16 -1.02182e+06 15 0 60
17 -1.02182e+06 16 0 60
18 -1.02182e+06 17 0 60
19 -1.02182e+06 18 0 60
20  1.02182e+06 19 0 60
21 -1.02182e+06 20 0 60
22  1.02182e+06 21 0 60
23 -1.02182e+06 22 0 60
24 -1.02182e+06 23 0 60
25 -1.02182e+06 24 0 60
26 -1.02182e+06 25 0 60
27 -1.02182e+06 26 0 60
28 -1.02182e+06 27 0 60
29 -1.02182e+06 28 0 60
30 -1.02182e+06 29 0 60
31 -1.02182e+06 30 0 60
32 -1.02182e+06 31 0 60
33 -1.02182e+06 32 0 60
34 -1.02182e+06 33 0 60
35 -1.02182e+06 34 0 60
36 -1.02182e+06 35 0 60
37 -1.02182e+06 36 0 60
38 -1.02182e+06 37 0 60
39 -1.02182e+06 38 0 60
40 -1.02182e+06 39 0 60
41 -1.02182e+06 40 0 60
42 -1.02182e+06 41 0 60
43 -1.02182e+06 42 0 60
44  1.02182e+06 43 0 60
45 -1.02182e+06 44 0 60
46 -1.02182e+06 45 0 60
47 -1.02182e+06 46 0 60
48  1.02182e+06 47 0 60
49 -1.02182e+06 48 0 60
50 -1.02182e+06 49 0 60
51 -1.02182e+06 50 0 60
52  1.02182e+06 51 0 60
53 -1.02182e+06 52 0 60
54 -1.02182e+06 53 0 60
55 -1.02182e+06 54 0 60
56 -1.02182e+06 55 0 60
57 -1.02182e+06 56 0 60
58 -1.02182e+06 57 0 60
59 -1.02182e+06 58 0 60
60 -1.02182e+06 59 0 60
61 -1.02182e+06 60 0 60
62 -1.02182e+06 61 0 60
63 -1.02182e+06 62 0 60
64 -1.02182e+06 63 0 60
65  1.02182e+06 64 0 60

# Format of trapezoid gradients:
# id amplitude rise flat fall delay
# ..      Hz/m   us   us   us    us
[TRAP]
 1      5199.06  10 20000  10  90
 2       153274 800 19200 600   0
 3      16666.7  10 2000  10  90
 4      -972917 120    0 120   0
 7  1.00677e+06 140  340 140 380
66      -938194 120    0 120   0
67  1.01933e+06 140  330 140 390
68      -903472 120    0 120   0
69  1.01046e+06 140  330 140 390
70      -868750 120    0 120   0
71   1.0016e+06 140  330 140 390
72      -834028 120    0 120   0
73  1.01431e+06 140  320 140 400
74      -799306 120    0 120   0
75  1.00525e+06 140  320 140 400
76      -764583 120    0 120   0
77  1.01833e+06 140  310 140 410
78      -729861 120    0 120   0
79  1.00907e+06 140  310 140 410
80      -695139 120    0 120   0
81       999815 140  310 140 410
82      -660417 120    0 120   0
83  1.01307e+06 140  300 140 420
84      -625694 120    0 120   0
85   1.0036e+06 140  300 140 420
86      -590972 120    0 120   0
87  1.01725e+06 140  290 140 430
88      -556250 120    0 120   0
89  1.00756e+06 140  290 140 430
90      -521528 120    0 120   0
91  1.02163e+06 140  280 140 440
92      -486806 120    0 120   0
93  1.01171e+06 140  280 140 440
94      -452083 120    0 120   0
95  1.00179e+06 140  280 140 440
96      -417361 120    0 120   0
97  1.01606e+06 140  270 140 450
98      -382639 120    0 120   0
99  1.00589e+06 140  270 140 450
100      -347917 120    0 120   0
101  1.02062e+06 140  260 140 460
102      -313194 120    0 120   0
103  1.01021e+06 140  260 140 460
104      -278472 120    0 120   0
105       999792 140  260 140 460
106      -243750 120    0 120   0
107  1.01474e+06 140  250 140 470
108      -209028 120    0 120   0
109  1.00406e+06 140  250 140 470
110      -174306 120    0 120   0
111  1.01952e+06 140  240 140 480
112      -139583 120    0 120   0
113  1.00855e+06 140  240 140 480
114      -104861 120    0 120   0
115       997588 140  240 140 480
116     -70138.9 120    0 120   0
117  1.01329e+06 140  230 140 490
118     -35416.7 120    0 120   0
119  1.00203e+06 140  230 140 490
120     -694.444 120    0 120   0
121  1.01829e+06 140  220 140 500
122      34027.8 120    0 120   0
123  1.00671e+06 140  220 140 500
124        68750 120    0 120   0
125       995139 130  230 130 510
126       103472 120    0 120   0
127  1.01167e+06 140  210 140 510
128       138194 120    0 120   0
129       999762 140  210 140 510
130       172917 120    0 120   0
131  1.01691e+06 140  200 140 520
132       207639 120    0 120   0
133  1.00466e+06 140  200 140 520
134       242361 120    0 120   0
135       992402 130  210 130 530
136       277083 120    0 120   0
137  1.00985e+06 140  190 140 530
138       311806 120    0 120   0
139       997222 130  200 130 540
140       346528 120    0 120   0
141  1.01536e+06 140  180 140 540
142       381250 120    0 120   0
143  1.00234e+06 140  180 140 540
144       415972 120    0 120   0
145  1.02124e+06 140  170 140 550
146       450694 120    0 120   0
147   1.0078e+06 140  170 140 550
148       485417 120    0 120   0
149       994355 130  180 130 560
150       520139 120    0 120   0
151  1.01361e+06 140  160 140 560
152       554861 120    0 120   0
153       999722 140  160 140 560
154       589583 120    0 120   0
155  1.01983e+06 140  150 140 570
156       624306 120    0 120   0
157  1.00546e+06 140  150 140 570
158       659028 120    0 120   0
159       991092 130  160 130 580

# Format of ADC events:
# id num dwell delay freq phase
# ..  ..    ns    us   Hz   rad
[ADC]
1 6163 2500 10 0 3.14159
2 6163 2500 10 0 0

# Sequence Shapes
[SHAPES]

shape_id 1
num_samples 20000
0.0006712
5e-07
6e-07
5e-07
5e-07
0
6e-07
5e-07
6e-07
5e-07
5e-07
0
6e-07
5e-07
6e-07
5e-07
6e-07
5e-07
5e-07
0
6e-07
5e-07
6e-07
5e-07
6e-07
5e-07
6e-07
5e-07
6e-07
5e-07
5e-07
0
6e-07
5e-07
6e-07
5e-07
6e-07
5e-07
6e-07
6e-07
0
5e-07
6e-07
5e-07
6e-07
5e-07
6e-07
5e-07
6e-07
5e-07
6e-07
6e-07
0
5e-07
6e-07
5e-07
6e-07
5e-07
6e-07
6e-07
0
5e-07
6e-07
5e-07
6e-07
6e-07
0
5e-07
6e-07
6e-07
0
5e-07
6e-07
6e-07
0
5e-07
6e-07
6e-07
0
5e-07
6e-07
6e-07
0
5e-07
6e-07
6e-07
0
5e-07
6e-07
6e-07
0
5e-07
6e-07
6e-07
1
5e-07
6e-07
6e-07
0
5e-07
6e-07
6e-07
1
5e-07
6e-07
6e-07
2
5e-07
6e-07
6e-07
2
5e-07
6e-07
6e-07
2
5e-07
6e-07
6e-07
3
5e-07
6e-07
6e-07
6
5e-07
6e-07
6e-07
11
5e-07
6e-07
6e-07
11
7e-07
6e-07
6e-07
12
7e-07
6e-07
6e-07
5
7e-07
6e-07
6e-07
3
7e-07
6e-07
6e-07
2
7e-07
6e-07
6e-07
2
7e-07
6e-07
6e-07
1
7e-07
6e-07
6e-07
1
7e-07
6e-07
6e-07
1
7e-07
6e-07
6e-07
0
7e-07
6e-07
6e-07
1
7e-07
6e-07
6e-07
0
7e-07
6e-07
6e-07
0
7e-07
6e-07
7e-07
6e-07
6e-07
0
7e-07
6e-07
6e-07
0
7e-07
6e-07
7e-07
6e-07
6e-07
0
7e-07
6e-07
7e-07
6e-07
7e-07
6e-07
6e-07
0
7e-07
6e-07
7e-07
6e-07
7e-07
6e-07
7e-07
6e-07
7e-07
6e-07
7e-07
6e-07
7e-07
6e-07
7e-07
6e-07
7e-07
6e-07
7e-07
6e-07
7e-07
7e-07
0
6e-07
7e-07
6e-07
7e-07
6e-07
7e-07
7e-07
0
6e-07
7e-07
6e-07
7e-07
7e-07
0
6e-07
7e-07
7e-07
0
6e-07
7e-07
7e-07
0
6e-07
7e-07
7e-07
0
6e-07
7e-07
7e-07
0
6e-07
7e-07
7e-07
0
6e-07
7e-07
7e-07
1
6e-07
7e-07
7e-07
1
6e-07
7e-07
7e-07
1
6e-07
7e-07
7e-07
1
6e-07
7e-07
7e-07
3
6e-07
7e-07
7e-07
3
6e-07
7e-07
7e-07
6
6e-07
7e-07
7e-07
29
8e-07
7e-07
7e-07
6
8e-07
7e-07
7e-07
3
8e-07
7e-07
7e-07
2
8e-07
7e-07
7e-07
2
8e-07
7e-07
7e-07
1
8e-07
7e-07
7e-07
1
8e-07
7e-07
7e-07
0
8e-07
7e-07
7e-07
0
8e-07
7e-07
7e-07
0
8e-07
7e-07
7e-07
0
8e-07
7e-07
7e-07
0
8e-07
7e-07
7e-07
0
8e-07
7e-07
8e-07
7e-07
7e-07
0
8e-07
7e-07
8e-07
7e-07
8e-07
7e-07
7e-07
0
8e-07
7e-07
8e-07
7e-07
8e-07
7e-07
8e-07
7e-07
8e-07
7e-07
8e-07
7e-07
8e-07
7e-07
8e-07
7e-07
8e-07
8e-07
0
7e-07
8e-07
7e-07
8e-07
7e-07
8e-07
8e-07
0
7e-07
8e-07
8e-07
0
7e-07
8e-07
7e-07
8e-07
8e-07
0
7e-07
8e-07
8e-07
0
7e-07
8e-07
8e-07
0
7e-07
8e-07
8e-07
1
7e-07
8e-07
8e-07
0
7e-07
8e-07
8e-07
1
7e-07
8e-07
8e-07
2
7e-07
8e-07
8e-07
2
7e-07
8e-07
8e-07
3
7e-07
8e-07
8e-07
7
7e-07
8e-07
8e-07
21
9e-07
8e-07
8e-07
6
9e-07
8e-07
8e-07
4
9e-07
8e-07
8e-07
2
9e-07
8e-07
8e-07
1
9e-07
8e-07
8e-07
1
9e-07
8e-07
8e-07
1
9e-07
8e-07
8e-07
0
9e-07
8e-07
8e-07
0
9e-07
8e-07
8e-07
0
9e-07
8e-07
8e-07
0
9e-07
8e-07
9e-07
8e-07
8e-07
0
9e-07
8e-07
9e-07
8e-07
8e-07
0
9e-07
8e-07
9e-07
8e-07
9e-07
8e-07
9e-07
8e-07
9e-07
8e-07
9e-07
8e-07
9e-07
8e-07
9e-07
8e-07
9e-07
8e-07
9e-07
9e-07
0
8e-07
9e-07
8e-07
9e-07
9e-07
0
8e-07
9e-07
8e-07
9e-07
9e-07
0
8e-07
9e-07
9e-07
0
8e-07
9e-07
9e-07
0
8e-07
9e-07
9e-07
0
8e-07
9e-07
9e-07
1
8e-07
9e-07
9e-07
1
8e-07
9e-07
9e-07
2
8e-07
9e-07
9e-07
2
8e-07
9e-07
9e-07
4
8e-07
9e-07
9e-07
29
1e-06
9e-07
9e-07
4
1e-06
9e-07
9e-07
2
1e-06
9e-07
9e-07
2
1e-06
9e-07
9e-07
1
1e-06
9e-07
9e-07
0
1e-06
9e-07
9e-07
1
1e-06
9e-07
9e-07
0
1e-06
9e-07
9e-07
0
1e-06
9e-07
1e-06
9e-07
9e-07
0
1e-06
9e-07
1e-06
9e-07
9e-07
0
1e-06
9e-07
1e-06
9e-07
1e-06
9e-07
1e-06
9e-07
1e-06
9e-07
1e-06
9e-07
1e-06
9e-07
1e-06
9e-07
1e-06
1e-06
0
9e-07
1e-06
9e-07
1e-06
1e-06
0
9e-07
1e-06
9e-07
1e-06
1e-06
0
9e-07
1e-06
1e-06
0
9e-07
1e-06
1e-06
0
9e-07
1e-06
1e-06
1
9e-07
1e-06
1e-06
1
9e-07
1e-06
1e-06
2
9e-07
1e-06
1e-06
2
9e-07
1e-06
1e-06
5
9e-07
1e-06
1e-06
20
1.1e-06
1e-06
1e-06
5
1.1e-06
1e-06
1e-06
3
1.1e-06
1e-06
1e-06
1
1.1e-06
1e-06
1e-06
1
1.1e-06
1e-06
1e-06
1
1.1e-06
1e-06
1e-06
0
1.1e-06
1e-06
1e-06
0
1.1e-06
1e-06
1e-06
0
1.1e-06
1e-06
1.1e-06
1e-06
1e-06
0
1.1e-06
1e-06
1.1e-06
1e-06
1.1e-06
1e-06
1.1e-06
1e-06
1e-06
0
1.1e-06
1e-06
1.1e-06
1e-06
1.1e-06
1.1e-06
0
1e-06
1.1e-06
1e-06
1.1e-06
1e-06
1.1e-06
1.1e-06
0
1e-06
1.1e-06
1e-06
1.1e-06
1.1e-06
0
1e-06
1.1e-06
1.1e-06
0
1e-06
1.1e-06
1.1e-06
0
1e-06
1.1e-06
1.1e-06
0
1e-06
1.1e-06
1.1e-06
1
1e-06
1.1e-06
1.1e-06
2
1e-06
1.1e-06
1.1e-06
2
1e-06
1.1e-06
1.1e-06
6
1e-06
1.1e-06
1.1e-06
15
1.2e-06
1.1e-06
1.1e-06
5
1.2e-06
1.1e-06
1.1e-06
3
1.2e-06
1.1e-06
1.1e-06
1
1.2e-06
1.1e-06
1.1e-06
1
1.2e-06
1.1e-06
1.1e-06
1
1.2e-06
1.1e-06
1.1e-06
0
1.2e-06
1.1e-06
1.1e-06
0
1.2e-06
1.1e-06
1.2e-06
1.1e-06
1.1e-06
0
1.2e-06
1.1e-06
1.2e-06
1.1e-06
1.2e-06
1.1e-06
1.1e-06
0
1.2e-06
1.1e-06
1.2e-06
1.1e-06
1.2e-06
1.1e-06
1.2e-06
1.2e-06
0
1.1e-06
1.2e-06
1.1e-06
1.2e-06
1.1e-06
1.2e-06
1.2e-06
0
1.1e-06
1.2e-06
1.1e-06
1.2e-06
1.2e-06
0
1.1e-06
1.2e-06
1.2e-06
0
1.1e-06
1.2e-06
1.2e-06
1
1.1e-06
1.2e-06
1.2e-06
1
1.1e-06
1.2e-06
1.2e-06
2
1.1e-06
1.2e-06
1.2e-06
3
1.1e-06
1.2e-06
1.2e-06
25
1.3e-06
1.2e-06
1.2e-06
3
1.3e-06
1.2e-06
1.2e-06
1
1.3e-06
1.2e-06
1.2e-06
1
1.3e-06
1.2e-06
1.2e-06
1
1.3e-06
1.2e-06
1.2e-06
0
1.3e-06
1.2e-06
1.2e-06
0
1.3e-06
1.2e-06
1.3e-06
1.2e-06
1.2e-06
0
1.3e-06
1.2e-06
1.3e-06
1.2e-06
1.3e-06
1.2e-06
1.3e-06
1.2e-06
1.3e-06
1.2e-06
1.3e-06
1.2e-06
1.3e-06
1.2e-06
1.3e-06
1.2e-06
1.3e-06
1.3e-06
0
1.2e-06
1.3e-06
1.2e-06
1.3e-06
1.3e-06
0
1.2e-06
1.3e-06
1.3e-06
0
1.2e-06
1.3e-06
1.3e-06
0
1.2e-06
1.3e-06
1.3e-06
1
1.2e-06
1.3e-06
1.3e-06
2
1.2e-06
1.3e-06
1.3e-06
3
1.2e-06
1.3e-06
1.3e-06
22
1.4e-06
1.3e-06
1.3e-06
4
1.4e-06
1.3e-06
1.3e-06
1
1.4e-06
1.3e-06
1.3e-06
1
1.4e-06
1.3e-06
1.3e-06
0
1.4e-06
1.3e-06
1.3e-06
0
1.4e-06
1.3e-06
1.3e-06
0
1.4e-06
1.3e-06
1.4e-06
1.3e-06
1.3e-06
0
1.4e-06
1.3e-06
1.4e-06
1.3e-06
1.4e-06
1.3e-06
1.4e-06
1.3e-06
1.4e-06
1.3e-06
1.4e-06
1.3e-06
1.4e-06
1.3e-06
1.4e-06
1.4e-06
0
1.3e-06
1.4e-06
1.4e-06
0
1.3e-06
1.4e-06
1.3e-06
1.4e-06
1.4e-06
1
1.3e-06
1.4e-06
1.4e-06
0
1.3e-06
1.4e-06
1.4e-06
1
1.3e-06
1.4e-06
1.4e-06
3
1.3e-06
1.4e-06
1.4e-06
24
1.5e-06
1.4e-06
1.4e-06
2
1.5e-06
1.4e-06
1.4e-06
1
1.5e-06
1.4e-06
1.4e-06
1
1.5e-06
1.4e-06
1.4e-06
0
1.5e-06
1.4e-06
1.4e-06
0
1.5e-06
1.4e-06
1.4e-06
0
1.5e-06
1.4e-06
1.5e-06
1.4e-06
1.5e-06
1.4e-06
1.5e-06
1.4e-06
1.5e-06
1.4e-06
1.5e-06
1.4e-06
1.5e-06
1.4e-06
1.5e-06
1.4e-06
1.5e-06
1.5e-06
0
1.4e-06
1.5e-06
1.4e-06
1.5e-06
1.5e-06
0
1.4e-06
1.5e-06
1.5e-06
0
1.4e-06
1.5e-06
1.5e-06
1
1.4e-06
1.5e-06
1.5e-06
2
1.4e-06
1.5e-06
1.5e-06
3
1.4e-06
1.5e-06
1.5e-06
16
1.6e-06
1.5e-06
1.5e-06
3
1.6e-06
1.5e-06
1.5e-06
2
1.6e-06
1.5e-06
1.5e-06
1
1.6e-06
1.5e-06
1.5e-06
0
1.6e-06
1.5e-06
1.5e-06
0
1.6e-06
1.5e-06
1.6e-06
1.5e-06
1.5e-06
0
1.6e-06
1.5e-06
1.6e-06
1.5e-06
1.6e-06
1.5e-06
1.6e-06
1.5e-06
1.6e-06
1.5e-06
1.6e-06
1.5e-06
1.6e-06
1.6e-06
0
1.5e-06
1.6e-06
1.5e-06
1.6e-06
1.6e-06
0
1.5e-06
1.6e-06
1.6e-06
0
1.5e-06
1.6e-06
1.6e-06
1
1.5e-06
1.6e-06
1.6e-06
1
1.5e-06
1.6e-06
1.6e-06
4
1.5e-06
1.6e-06
1.6e-06
13
1.7e-06
1.6e-06
1.6e-06
4
1.7e-06
1.6e-06
1.6e-06
2
1.7e-06
1.6e-06
1.6e-06
0
1.7e-06
1.6e-06
1.6e-06
0
1.7e-06
1.6e-06
1.6e-06
0
1.7e-06
1.6e-06
1.6e-06
0
1.7e-06
1.6e-06
1.7e-06
1.6e-06
1.7e-06
1.6e-06
1.7e-06
1.6e-06
1.7e-06
1.6e-06
1.7e-06
1.6e-06
1.7e-06
1.6e-06
1.7e-06
1.7e-06
0
1.6e-06
1.7e-06
1.6e-06
1.7e-06
1.7e-06
0
1.6e-06
1.7e-06
1.7e-06
1
1.6e-06
1.7e-06
1.7e-06
1
1.6e-06
1.7e-06
1.7e-06
4
1.6e-06
1.7e-06
1.7e-06
14
1.8e-06
1.7e-06
1.7e-06
3
1.8e-06
1.7e-06
1.7e-06
1
1.8e-06
1.7e-06
1.7e-06
1
1.8e-06
1.7e-06
1.7e-06
0
1.8e-06
1.7e-06
1.8e-06
1.7e-06
1.7e-06
0
1.8e-06
1.7e-06
1.8e-06
1.7e-06
1.8e-06
1.7e-06
1.8e-06
1.7e-06
1.8e-06
1.7e-06
1.8e-06
1.7e-06
1.8e-06
1.8e-06
0
1.7e-06
1.8e-06
1.7e-06
1.8e-06
1.8e-06
1
1.7e-06
1.8e-06
1.8e-06
0
1.7e-06
1.8e-06
1.8e-06
2
1.7e-06
1.8e-06
1.8e-06
5
1.7e-06
1.8e-06
1.8e-06
6
1.9e-06
1.8e-06
1.8e-06
5
1.9e-06
1.8e-06
1.8e-06
2
1.9e-06
1.8e-06
1.8e-06
0
1.9e-06
1.8e-06
1.8e-06
0
1.9e-06
1.8e-06
1.8e-06
0
1.9e-06
1.8e-06
1.8e-06
0
1.9e-06
1.8e-06
1.9e-06
1.8e-06
1.9e-06
1.8e-06
1.9e-06
1.8e-06
1.9e-06
1.8e-06
1.9e-06
1.9e-06
0
1.8e-06
1.9e-06
1.8e-06
1.9e-06
1.9e-06
0
1.8e-06
1.9e-06
1.9e-06
1
1.8e-06
1.9e-06
1.9e-06
1
1.8e-06
1.9e-06
1.9e-06
4
1.8e-06
1.9e-06
1.9e-06
9
2e-06
1.9e-06
1.9e-06
4
2e-06
1.9e-06
1.9e-06
1
2e-06
1.9e-06
1.9e-06
1
2e-06
1.9e-06
1.9e-06
0
2e-06
1.9e-06
2e-06
1.9e-06
1.9e-06
0
2e-06
1.9e-06
2e-06
1.9e-06
2e-06
1.9e-06
2e-06
1.9e-06
2e-06
2e-06
0
1.9e-06
2e-06
1.9e-06
2e-06
2e-06
0
1.9e-06
2e-06
2e-06
0
1.9e-06
2e-06
2e-06
2
1.9e-06
2e-06
2e-06
4
1.9e-06
2e-06
2e-06
8
2.1e-06
2e-06
2e-06
4
2.1e-06
2e-06
2e-06
1
2.1e-06
2e-06
2e-06
0
2.1e-06
2e-06
2e-06
0
2.1e-06
2e-06
2e-06
0
2.1e-06
2e-06
